Zaman (sn),CH1 (V),CH2 (V),CH3 (V),Label
1.8615,1.6069,1.6786,1.6448,1
1.8615,1.6077,1.6818,1.6456,1
1.8615,1.6069,1.6883,1.6464,1
1.8615,1.6045,1.6907,1.6448,1
1.8615,1.6053,1.6859,1.6456,1
1.8615,1.6085,1.6794,1.6472,1
1.8615,1.6085,1.6851,1.6423,1
1.8615,1.6069,1.6891,1.6391,1
1.8615,1.6093,1.6891,1.6399,1
1.8615,1.6166,1.6851,1.6423,1
1.8615,1.6158,1.6842,1.6456,1
1.8615,1.6125,1.6996,1.6472,1
1.8615,1.6117,1.6979,1.6456,1
1.8615,1.6141,1.6955,1.6440,1
1.8615,1.6093,1.7068,1.6375,1
1.8615,1.6053,1.7141,1.6375,1
1.8615,1.6077,1.7133,1.6528,1
1.8615,1.6093,1.7076,1.6351,1
1.8615,1.6085,1.6931,1.6335,1
1.8615,1.5948,1.6818,1.6311,1
1.8615,1.6004,1.6754,1.6295,1
1.8615,1.6029,1.6577,1.6230,1
1.8615,1.6029,1.6633,1.6311,1
1.8615,1.6037,1.6649,1.6303,1
1.8615,1.6117,1.6673,1.6311,1
1.8615,1.6149,1.6681,1.6335,1
1.8615,1.6141,1.6665,1.6206,1
1.8615,1.6141,1.6851,1.6415,1
1.8615,1.6158,1.6923,1.6480,1
1.8615,1.6246,1.7125,1.6472,1
1.8615,1.6262,1.7100,1.6560,1
1.8615,1.6206,1.7133,1.6641,1
1.8615,1.6214,1.6891,1.6560,1
1.8615,1.6166,1.6915,1.6117,1
1.8615,1.6101,1.6851,1.6125,1
1.8615,1.6053,1.6834,1.6174,1
1.8615,1.6021,1.6810,1.6190,1
1.8615,1.5964,1.6625,1.6246,1
1.8615,1.5972,1.6657,1.6190,1
1.8615,1.5964,1.6544,1.6230,1
1.8615,1.5932,1.6641,1.6158,1
1.8615,1.5948,1.6617,1.6133,1
1.8615,1.5940,1.6794,1.6158,1
1.8615,1.6012,1.6818,1.6568,1
1.8615,1.6053,1.6842,1.6585,1
1.8615,1.6093,1.6746,1.6480,1
1.8615,1.5980,1.6657,1.6407,1
1.8615,1.6037,1.6657,1.6375,1
1.8615,1.6045,1.6681,1.6359,1
1.8615,1.5980,1.6641,1.6311,1
1.8615,1.5972,1.6585,1.6286,1
1.8615,1.6045,1.6625,1.6303,1
1.8615,1.6069,1.6609,1.6359,1
1.8615,1.6045,1.6577,1.6359,1
1.8615,1.5956,1.6488,1.6351,1
1.8615,1.5988,1.6560,1.6351,1
1.8615,1.6141,1.6657,1.6391,1
1.8615,1.6109,1.6673,1.6311,1
1.8615,1.6021,1.6746,1.6278,1
1.8615,1.6037,1.6810,1.6286,1
1.8615,1.6012,1.6851,1.6311,1
1.8615,1.5948,1.6770,1.6319,1
1.8615,1.5924,1.6802,1.6327,1
1.8615,1.5932,1.6770,1.6351,1
1.8615,1.5996,1.6746,1.6343,1
1.8615,1.5948,1.6722,1.6383,1
1.8615,1.5956,1.6480,1.6456,1
1.8615,1.5988,1.6601,1.6488,1
1.8615,1.6045,1.6560,1.6520,1
1.8615,1.6053,1.6520,1.6544,1
1.8615,1.6125,1.6536,1.6464,1
1.8615,1.6158,1.6448,1.6480,1
1.8615,1.6077,1.6423,1.6432,1
1.8615,1.6077,1.6375,1.6367,1
1.8615,1.6077,1.6456,1.6415,1
1.8615,1.6085,1.6504,1.6423,1
1.8615,1.6077,1.6794,1.6391,1
1.8615,1.6077,1.6714,1.6391,1
1.8615,1.6069,1.6681,1.6383,1
1.8615,1.6125,1.6722,1.6359,1
1.8615,1.6037,1.6722,1.6520,1
1.8615,1.6037,1.6770,1.6480,1
1.8615,1.6053,1.6818,1.6472,1
1.8615,1.6085,1.6931,1.6528,1
1.8615,1.6021,1.6947,1.6488,1
1.8615,1.6037,1.6931,1.6601,1
1.8615,1.6085,1.6875,1.6560,1
1.8615,1.6077,1.6794,1.6544,1
1.8615,1.6085,1.6754,1.6552,1
1.8615,1.6045,1.6689,1.6544,1
1.8615,1.6069,1.6673,1.6432,1
1.8615,1.6109,1.6730,1.6432,1
1.8615,1.6174,1.6722,1.6391,1
1.8615,1.6141,1.6722,1.6391,1
1.8615,1.6190,1.6730,1.6520,1
1.8615,1.6222,1.6770,1.6480,1
1.9135,1.6222,1.6802,1.6472,1
1.9135,1.6206,1.6842,1.6407,1
1.9135,1.6214,1.6770,1.6415,1
1.9135,1.6222,1.6714,1.6448,1
1.9135,1.6246,1.6593,1.6504,1
1.9135,1.6214,1.6552,1.6536,1
1.9135,1.6254,1.6544,1.6641,1
1.9135,1.6101,1.6593,1.6641,1
1.9135,1.6133,1.6625,1.6544,1
1.9135,1.6101,1.6641,1.6448,1
1.9135,1.6085,1.6625,1.6472,1
1.9135,1.6093,1.6601,1.6552,1
1.9135,1.6069,1.6633,1.6520,1
1.9135,1.6077,1.6754,1.6488,1
1.9135,1.6117,1.6754,1.6504,1
1.9135,1.6109,1.6891,1.6440,1
1.9135,1.6077,1.6955,1.6367,1
1.9135,1.6246,1.6842,1.6488,1
1.9135,1.6286,1.6794,1.6504,1
1.9135,1.6262,1.6673,1.6552,1
1.9135,1.6254,1.6689,1.6536,1
1.9135,1.6270,1.6681,1.6520,1
1.9135,1.6319,1.6722,1.6552,1
1.9135,1.6351,1.6625,1.6625,1
1.9135,1.6303,1.6826,1.6609,1
1.9135,1.6343,1.6794,1.6714,1
1.9135,1.6343,1.6762,1.6649,1
1.9135,1.6327,1.6762,1.6496,1
1.9135,1.6286,1.6730,1.6472,1
1.9135,1.6335,1.6778,1.6464,1
1.9135,1.6335,1.6714,1.6448,1
1.9135,1.6262,1.6633,1.6488,1
1.9135,1.6214,1.6689,1.6488,1
1.9135,1.6238,1.6754,1.6552,1
1.9135,1.6230,1.6714,1.6544,1
1.9135,1.6174,1.6714,1.6464,1
1.9135,1.6198,1.6730,1.6480,1
1.9135,1.6037,1.6730,1.6536,1
1.9135,1.6029,1.6738,1.6601,1
1.9135,1.6004,1.6754,1.6593,1
1.9135,1.6037,1.6794,1.6593,1
1.9135,1.6101,1.6907,1.6504,1
1.9135,1.6149,1.6931,1.6528,1
1.9135,1.6085,1.7004,1.6464,1
1.9135,1.6141,1.7004,1.6472,1
1.9135,1.6174,1.6923,1.6480,1
1.9135,1.6125,1.6834,1.6456,1
1.9135,1.6359,1.6851,1.6480,1
1.9135,1.6351,1.6851,1.6440,1
1.9135,1.6375,1.6851,1.6440,1
1.9135,1.6375,1.6867,1.6456,1
1.9135,1.6295,1.6883,1.6520,1
1.9135,1.6295,1.6883,1.6520,1
1.9135,1.6319,1.6851,1.6560,1
1.9135,1.6286,1.6875,1.6528,1
1.9135,1.6246,1.6907,1.6528,1
1.9135,1.6270,1.6963,1.6585,1
1.9135,1.6230,1.6979,1.6568,1
1.9135,1.6133,1.6955,1.6560,1
1.9148,1.6029,1.6947,1.6560,1
1.9148,1.6053,1.6915,1.6560,1
1.9148,1.6133,1.6947,1.6488,1
1.9148,1.6101,1.6907,1.6464,1
1.9148,1.6093,1.6891,1.6359,1
1.9148,1.6117,1.6867,1.6343,1
1.9148,1.6158,1.6867,1.6802,1
1.9148,1.6149,1.6867,1.6818,1
1.9148,1.6141,1.6859,1.6770,1
1.9148,1.6286,1.6931,1.6746,1
1.9148,1.6343,1.7020,1.6673,1
1.9148,1.6311,1.7141,1.6585,1
1.9148,1.6303,1.7108,1.6568,1
1.9148,1.6343,1.7020,1.6593,1
1.9148,1.6311,1.6915,1.6641,1
1.9148,1.6286,1.6875,1.6665,1
1.9148,1.6286,1.6891,1.6295,1
1.9148,1.6286,1.6899,1.6295,1
1.9148,1.6262,1.6915,1.6399,1
1.9148,1.6230,1.6947,1.6359,1
1.9148,1.6286,1.6915,1.6415,1
1.9148,1.6311,1.6859,1.6480,1
1.9148,1.6319,1.6859,1.6593,1
1.9148,1.6311,1.6939,1.6609,1
1.9148,1.6343,1.7004,1.6568,1
1.9148,1.6319,1.7028,1.6585,1
1.9148,1.6319,1.7012,1.6544,1
1.9148,1.6415,1.6988,1.6528,1
1.9148,1.6432,1.7020,1.6496,1
1.9148,1.6383,1.6996,1.6552,1
1.9148,1.6327,1.6988,1.6593,1
1.9148,1.6295,1.6947,1.6585,1
1.9148,1.5610,1.6883,1.6625,1
1.9148,1.5698,1.6859,1.6617,1
1.9148,1.5738,1.6810,1.6601,1
1.9148,1.5819,1.6802,1.6585,1
1.9148,1.5884,1.6867,1.6520,1
1.9148,1.5835,1.6971,1.6464,1
1.9148,1.5867,1.6996,1.6432,1
1.9148,1.5908,1.6979,1.6423,1
1.9148,1.5972,1.6947,1.6407,1
1.9148,1.6021,1.6883,1.6399,1
1.9148,1.6697,1.6826,1.6383,1
1.9148,1.6585,1.6851,1.6359,1
1.9148,1.6536,1.6979,1.6391,1
1.9648,1.6440,1.7020,1.6383,1
1.9648,1.6327,1.7020,1.6391,1
1.9648,1.6286,1.6963,1.6440,1
1.9648,1.6222,1.6899,1.6464,1
1.9648,1.6198,1.6842,1.6415,1
1.9648,1.6117,1.6786,1.6399,1
1.9648,1.6061,1.6867,1.6520,1
1.9648,1.6174,1.6907,1.6520,1
1.9648,1.6149,1.6955,1.6488,1
1.9648,1.6077,1.6891,1.6577,1
1.9648,1.6149,1.6891,1.6568,1
1.9648,1.6230,1.6875,1.6601,1
1.9648,1.6222,1.6818,1.6593,1
1.9648,1.6311,1.6834,1.6560,1
1.9648,1.6375,1.6891,1.6593,1
1.9648,1.6423,1.6947,1.6560,1
1.9648,1.6415,1.6923,1.6456,1
1.9648,1.6295,1.6971,1.6415,1
1.9648,1.6327,1.6971,1.6544,1
1.9648,1.6375,1.7044,1.6464,1
1.9648,1.6335,1.7052,1.6440,1
1.9648,1.6367,1.7052,1.6464,1
1.9648,1.6399,1.7036,1.6480,1
1.9648,1.6327,1.6939,1.6496,1
1.9648,1.6311,1.6826,1.6512,1
1.9648,1.6343,1.6770,1.6544,1
1.9648,1.6488,1.6810,1.6037,1
1.9648,1.6552,1.6851,1.6093,1
1.9648,1.6536,1.6875,1.6045,1
1.9648,1.6705,1.6859,1.6125,1
1.9648,1.6979,1.6802,1.6206,1
1.9648,1.6923,1.6770,1.6295,1
1.9648,1.6899,1.6786,1.6303,1
1.9648,1.6923,1.6859,1.6270,1
1.9648,1.6915,1.6939,1.6262,1
1.9648,1.6851,1.7004,1.6270,1
1.9658,1.6746,1.7012,1.6834,1
1.9658,1.6697,1.6947,1.6762,1
1.9658,1.6738,1.6891,1.6649,1
1.9658,1.6593,1.6915,1.6536,1
1.9658,1.6311,1.6939,1.6504,1
1.9658,1.6303,1.6923,1.6375,1
1.9658,1.6528,1.6931,1.6327,1
1.9658,1.6488,1.6923,1.6327,1
1.9658,1.6472,1.6899,1.6303,1
1.9658,1.6480,1.6907,1.6399,1
1.9658,1.6407,1.6923,1.6423,1
1.9658,1.6440,1.6971,1.6351,1
1.9658,1.6464,1.6988,1.6375,1
1.9658,1.6504,1.6923,1.6407,1
1.9658,1.6560,1.6979,1.6448,1
1.9658,1.6585,1.6738,1.6456,1
1.9658,1.6399,1.6754,1.6472,1
1.9658,1.6480,1.6794,1.6496,1
1.9658,1.6536,1.6867,1.6512,1
1.9658,1.6585,1.6883,1.6278,1
1.9658,1.6834,1.6875,1.6238,1
1.9658,1.6842,1.6802,1.6319,1
1.9658,1.6794,1.6778,1.6375,1
1.9658,1.6746,1.6802,1.6432,1
1.9658,1.6722,1.6738,1.6472,1
1.9658,1.6714,1.7036,1.6496,1
1.9658,1.6697,1.7060,1.6480,1
1.9658,1.6665,1.7028,1.6472,1
1.9658,1.6609,1.6947,1.6560,1
1.9658,1.6617,1.6907,1.6722,1
1.9658,1.6407,1.6883,1.6722,1
1.9658,1.6351,1.6955,1.6673,1
1.9658,1.6343,1.7068,1.6665,1
1.9658,1.6375,1.6996,1.6585,1
1.9658,1.6359,1.7036,1.6512,1
1.9658,1.6367,1.7012,1.6464,1
1.9658,1.6343,1.7036,1.6464,1
1.9658,1.6367,1.7052,1.6512,1
1.9658,1.6391,1.7108,1.6415,1
1.9658,1.6351,1.7141,1.6359,1
1.9658,1.6585,1.7092,1.6375,1
1.9658,1.6601,1.7100,1.6399,1
1.9658,1.6641,1.6883,1.6456,1
1.9658,1.6617,1.6939,1.6488,1
1.9658,1.6625,1.6963,1.6528,1
1.9658,1.6609,1.7004,1.6568,1
1.9658,1.6609,1.7044,1.6601,1
1.9658,1.6560,1.7036,1.6617,1
1.9658,1.6544,1.6979,1.6633,1
1.9658,1.6585,1.6939,1.6689,1
1.9658,1.6399,1.6931,1.6633,1
1.9658,1.6391,1.6899,1.6560,1
1.9658,1.6375,1.7052,1.6488,1
1.9658,1.6407,1.7108,1.6472,1
1.9658,1.6423,1.7133,1.6407,1
1.9658,1.6391,1.7068,1.6359,1
1.9658,1.6407,1.6971,1.6351,1
1.9658,1.6448,1.6963,1.6254,1
1.9658,1.6464,1.7020,1.6286,1
1.9658,1.6512,1.7012,1.6295,1
1.9658,1.6504,1.7036,1.6343,1
1.9658,1.6544,1.7068,1.6375,1
1.9658,1.6544,1.7068,1.6472,1
1.9658,1.6528,1.7028,1.6512,1
1.9658,1.6512,1.6971,1.6536,1
1.9658,1.6504,1.6996,1.6536,1
1.9658,1.6496,1.7108,1.6552,1
2.0002,1.6391,1.7076,1.6593,1
2.0002,1.6359,1.7165,1.6601,1
2.0002,1.6319,1.7092,1.6544,1
2.0002,1.6335,1.7092,1.6568,1
2.0002,1.6319,1.7100,1.6560,1
2.0002,1.6311,1.7100,1.6504,1
2.0002,1.6367,1.7084,1.6504,1
2.0002,1.6504,1.7068,1.6448,1
2.0002,1.6456,1.7052,1.6480,1
2.0002,1.6432,1.6963,1.6496,1
2.0002,1.6560,1.6963,1.6577,1
2.0002,1.6577,1.6834,1.6528,1
2.0002,1.6520,1.6979,1.6504,1
2.0002,1.6528,1.7036,1.6456,1
2.0002,1.6528,1.7044,1.6464,1
2.0002,1.6544,1.6963,1.6504,1
2.0002,1.6504,1.6923,1.6488,1
2.0002,1.6351,1.6891,1.6480,1
2.0002,1.7125,1.6883,1.6496,1
2.0002,1.7052,1.6875,1.6407,1
2.0002,1.6963,1.6907,1.6448,1
2.0002,1.6947,1.6971,1.6512,1
2.0002,1.6979,1.6988,1.6617,1
2.0002,1.6899,1.6988,1.6520,1
2.0002,1.6875,1.6971,1.6528,1
2.0002,1.6883,1.6988,1.6399,1
2.0002,1.6899,1.7020,1.6367,1
2.0002,1.6947,1.7036,1.6399,1
2.0002,1.6262,1.6971,1.6423,1
2.0002,1.6407,1.6939,1.6520,1
2.0002,1.6496,1.6939,1.6536,1
2.0002,1.6544,1.6947,1.6415,1
2.0002,1.6448,1.6923,1.6351,1
2.0002,1.6528,1.6923,1.6520,1
2.0002,1.6617,1.6907,1.6625,1
2.0002,1.6657,1.7020,1.6689,1
2.0002,1.6657,1.7004,1.6673,1
2.0002,1.6689,1.7044,1.6665,1
2.0002,1.6722,1.7100,1.6641,1
2.0002,1.6673,1.7270,1.6633,1
2.0002,1.6673,1.7278,1.6496,1
2.0002,1.6641,1.7262,1.6568,1
2.0002,1.6786,1.7197,1.6593,1
2.0002,1.6778,1.7108,1.6085,1
2.0002,1.6754,1.7036,1.6125,1
2.0002,1.6722,1.6899,1.6085,1
2.0002,1.6649,1.6899,1.6158,1
2.0002,1.6609,1.6891,1.6230,1
2.0002,1.6665,1.6939,1.6343,1
2.0002,1.6738,1.6931,1.6327,1
2.0002,1.6705,1.6955,1.6351,1
2.0002,1.6681,1.6971,1.6335,1
2.0002,1.6601,1.7036,1.6319,1
2.0002,1.6601,1.6802,1.6746,1
2.0002,1.6552,1.6923,1.6649,1
2.0002,1.6705,1.6996,1.6802,1
2.0002,1.6746,1.7044,1.6689,1
2.0002,1.6730,1.7100,1.6617,1
2.0002,1.6593,1.7205,1.6480,1
2.0002,1.6512,1.7052,1.6440,1
2.0002,1.6512,1.7052,1.6343,1
2.0002,1.6560,1.7028,1.6351,1
2.0002,1.6577,1.6915,1.6343,1
2.0002,1.6568,1.7173,1.6351,1
2.0002,1.6577,1.7068,1.6335,1
2.0002,1.6432,1.7068,1.6190,1
2.0002,1.6472,1.7084,1.6246,1
2.0002,1.6496,1.7092,1.6246,1
2.0002,1.6593,1.7036,1.6286,1
2.0002,1.6641,1.7060,1.6278,1
2.0622,1.6681,1.7036,1.6335,1
2.0622,1.6689,1.7020,1.6351,1
2.0622,1.6746,1.7036,1.6375,1
2.0622,1.6786,1.6996,1.6399,1
2.0622,1.6810,1.7044,1.6391,1
2.0622,1.6810,1.7004,1.6383,1
2.0622,1.6818,1.7012,1.6528,1
2.0622,1.6851,1.6955,1.6512,1
2.0622,1.6762,1.6899,1.6609,1
2.0622,1.6810,1.6907,1.6625,1
2.0622,1.6802,1.6907,1.6601,1
2.0622,1.6818,1.6907,1.6585,1
2.0622,1.6802,1.6907,1.6625,1
2.0622,1.6762,1.6988,1.6601,1
2.0622,1.6762,1.7004,1.6552,1
2.0622,1.6705,1.7044,1.6552,1
2.0622,1.6649,1.7036,1.6432,1
2.0622,1.6681,1.7028,1.6480,1
2.0622,1.6697,1.7052,1.6359,1
2.0622,1.6657,1.7052,1.6488,1
2.0622,1.6633,1.7044,1.6520,1
2.0622,1.6552,1.7052,1.6617,1
2.0622,1.6585,1.7092,1.6577,1
2.0622,1.6601,1.7116,1.6528,1
2.0622,1.6593,1.7205,1.6585,1
2.0622,1.6714,1.7197,1.6746,1
2.0622,1.6730,1.7157,1.6714,1
2.0622,1.6689,1.7084,1.6714,1
2.0622,1.6786,1.7028,1.6665,1
2.0622,1.6786,1.6996,1.6512,1
2.0622,1.6802,1.7004,1.6536,1
2.0622,1.6834,1.7116,1.6448,1
2.0622,1.6786,1.7028,1.6464,1
2.0622,1.6778,1.7125,1.6544,1
2.0622,1.6770,1.7052,1.6609,1
2.0622,1.6689,1.7028,1.6496,1
2.0622,1.6722,1.7028,1.6552,1
2.0622,1.6746,1.7084,1.6544,1
2.0622,1.6697,1.7108,1.6552,1
2.0622,1.6722,1.7076,1.6552,1
2.0622,1.6714,1.7044,1.6528,1
2.0622,1.6762,1.6907,1.6609,1
2.0622,1.6794,1.7028,1.6593,1
2.0622,1.6834,1.6931,1.6552,1
2.0622,1.6834,1.6923,1.6488,1
2.0622,1.6891,1.6915,1.6504,1
2.0622,1.6907,1.6923,1.6496,1
2.0622,1.6851,1.6939,1.6262,1
2.0622,1.6842,1.6955,1.6311,1
2.0622,1.6834,1.7020,1.6327,1
2.0622,1.6842,1.7084,1.6375,1
2.0622,1.6851,1.7189,1.6311,1
2.0622,1.6818,1.7237,1.6270,1
2.0622,1.6851,1.7165,1.6262,1
2.0622,1.6859,1.7100,1.6262,1
2.0622,1.6770,1.7052,1.6278,1
2.0622,1.6762,1.7020,1.6327,1
2.0622,1.6802,1.7004,1.6520,1
2.0622,1.6802,1.7004,1.6609,1
2.0622,1.6802,1.7028,1.6601,1
2.0622,1.6826,1.7036,1.6568,1
2.0622,1.6891,1.6988,1.6448,1
2.0622,1.6915,1.6915,1.6440,1
2.0622,1.6859,1.6963,1.6472,1
2.0622,1.6859,1.7044,1.6448,1
2.0622,1.6931,1.7084,1.6399,1
2.0622,1.6939,1.7141,1.6311,1
2.0622,1.6971,1.7141,1.6286,1
2.0622,1.6939,1.7125,1.5932,1
2.0622,1.6923,1.7125,1.5956,1
2.0622,1.6891,1.7108,1.5996,1
2.0622,1.6834,1.7060,1.6077,1
2.0622,1.6802,1.7052,1.6125,1
2.0622,1.6810,1.7020,1.6109,1
2.0622,1.6746,1.6988,1.6012,1
2.0622,1.6730,1.7012,1.6061,1
2.0622,1.6762,1.7012,1.6077,1
2.0622,1.6738,1.7068,1.6125,1
2.0622,1.6794,1.7157,1.6343,1
2.0622,1.6786,1.7165,1.6311,1
2.0622,1.6786,1.7108,1.6278,1
2.0622,1.6818,1.7012,1.6278,1
2.0622,1.6810,1.6979,1.6262,1
2.0622,1.6754,1.7012,1.6246,1
2.0622,1.6786,1.7036,1.6448,1
2.0622,1.6778,1.7076,1.6488,1
2.0622,1.6681,1.7116,1.6432,1
2.0622,1.6593,1.7100,1.6399,1
2.0622,1.6601,1.7012,1.6359,1
2.0622,1.6633,1.6939,1.6391,1
2.0622,1.6657,1.6979,1.6375,1
2.0622,1.6625,1.7092,1.6367,1
2.0622,1.6657,1.7133,1.6367,1
2.0622,1.6730,1.7189,1.6407,1
2.0622,1.6746,1.7173,1.6359,1
2.0622,1.6730,1.7084,1.6262,1
2.0622,1.6794,1.6979,1.6286,1
2.0622,1.6834,1.6931,1.6319,1
2.0622,1.6818,1.6947,1.6415,1
2.0622,1.6834,1.6979,1.6415,1
2.0622,1.6746,1.6971,1.6270,1
2.0622,1.6697,1.6988,1.6295,1
2.0622,1.6649,1.6996,1.6278,1
2.0622,1.6625,1.6955,1.6303,1
2.0622,1.6665,1.6988,1.6295,1
2.0622,1.6681,1.7092,1.6343,1
2.0622,1.6657,1.7173,1.6367,1
2.0622,1.6609,1.7157,1.6335,1
2.0622,1.6633,1.7084,1.6407,1
2.0622,1.6593,1.7020,1.6432,1
2.0622,1.6738,1.7028,1.6536,1
2.0622,1.6802,1.7068,1.6544,1
2.0622,1.6834,1.7149,1.6641,1
2.0622,1.6859,1.7149,1.6609,1
2.0622,1.6778,1.7141,1.6568,1
2.0622,1.6818,1.7036,1.6536,1
2.0622,1.6842,1.6963,1.6633,1
2.0622,1.6883,1.6971,1.6689,1
2.0622,1.6834,1.7036,1.6625,1
2.0622,1.6851,1.7100,1.6577,1
2.0622,1.6834,1.7141,1.6609,1
2.0622,1.6786,1.7173,1.6585,1
2.0622,1.6818,1.7100,1.6520,1
2.0622,1.6818,1.7036,1.6536,1
2.0622,1.6907,1.7020,1.6552,1
2.1100,1.6883,1.7020,1.6512,1
2.1100,1.6875,1.7076,1.6391,1
2.1100,1.6931,1.7084,1.6464,1
2.1100,1.6963,1.7108,1.6512,1
2.1100,1.6963,1.7125,1.6536,1
2.1100,1.6891,1.7125,1.6496,1
2.1100,1.6955,1.7076,1.6504,1
2.1100,1.6963,1.7092,1.6488,1
2.1100,1.6963,1.7133,1.6440,1
2.1100,1.6915,1.7133,1.6415,1
2.1100,1.6931,1.7116,1.6472,1
2.1100,1.6955,1.7020,1.6512,1
2.1100,1.6907,1.7004,1.6456,1
2.1100,1.6947,1.7044,1.6399,1
2.1100,1.6915,1.7076,1.6343,1
2.1100,1.6988,1.7060,1.6399,1
2.1100,1.6996,1.7020,1.6415,1
2.1100,1.6996,1.6947,1.6520,1
2.1100,1.6979,1.6899,1.6560,1
2.1100,1.6971,1.6899,1.6585,1
2.1100,1.6939,1.6971,1.6593,1
2.1100,1.6931,1.7052,1.6488,1
2.1100,1.6963,1.7116,1.6464,1
2.1100,1.6915,1.7012,1.6472,1
2.1100,1.6931,1.6971,1.6536,1
2.1100,1.6883,1.6891,1.6536,1
2.1100,1.6891,1.6883,1.6528,1
2.1100,1.6859,1.6947,1.6448,1
2.1100,1.6883,1.6979,1.6343,1
2.1100,1.6899,1.7044,1.6286,1
2.1100,1.6754,1.6915,1.6270,1
2.1100,1.6754,1.6931,1.6383,1
2.1100,1.6762,1.6963,1.6391,1
2.1100,1.6754,1.6915,1.6367,1
2.1100,1.6802,1.6915,1.6295,1
2.1100,1.6826,1.6979,1.6246,1
2.1100,1.6810,1.6996,1.6270,1
2.1100,1.6834,1.6996,1.6254,1
2.1100,1.6826,1.6939,1.6351,1
2.1100,1.6810,1.6770,1.6391,1
2.1100,1.6971,1.6907,1.6367,1
2.1100,1.6996,1.6883,1.6423,1
2.1100,1.7004,1.6738,1.6415,1
2.1100,1.6988,1.6834,1.6448,1
2.1100,1.6939,1.6794,1.6504,1
2.1100,1.6923,1.6697,1.6560,1
2.1100,1.6891,1.6697,1.6528,1
2.1100,1.6859,1.6705,1.6512,1
2.1100,1.6641,1.6802,1.6496,1
2.1100,1.6697,1.7052,1.6480,1
2.1100,1.6705,1.6859,1.6504,1
2.1100,1.6689,1.6875,1.6432,1
2.1100,1.6625,1.6939,1.6399,1
2.1100,1.6657,1.6907,1.6383,1
2.1100,1.6689,1.6915,1.6375,1
2.1100,1.6657,1.6988,1.6351,1
2.1100,1.6681,1.6955,1.6367,1
2.1100,1.6689,1.6963,1.6343,1
2.1100,1.6907,1.6988,1.6359,1
2.1100,1.6754,1.6842,1.6391,1
2.1100,1.6705,1.6979,1.6415,1
2.1100,1.6681,1.6947,1.6488,1
2.1100,1.6585,1.6883,1.6560,1
2.1100,1.6617,1.6891,1.6552,1
2.1100,1.6617,1.6923,1.6625,1
2.1100,1.6673,1.6923,1.6705,1
2.1100,1.6633,1.6947,1.6714,1
2.1100,1.6641,1.6923,1.6738,1
2.1100,1.6649,1.6899,1.6714,1
2.1100,1.6786,1.6907,1.6714,1
2.1100,1.6810,1.6931,1.6697,1
2.1100,1.6810,1.6947,1.6609,1
2.1100,1.6939,1.6963,1.6641,1
2.1100,1.6907,1.7004,1.6625,1
2.1100,1.6899,1.7004,1.6560,1
2.1100,1.6818,1.6988,1.6552,1
2.1100,1.6851,1.7068,1.6544,1
2.1100,1.6818,1.7076,1.6544,1
2.1100,1.6786,1.7052,1.6520,1
2.1100,1.6738,1.6971,1.6536,1
2.1100,1.6802,1.6859,1.6528,1
2.1100,1.6754,1.6826,1.6536,1
2.1100,1.6673,1.6842,1.6464,1
2.1100,1.6085,1.6859,1.6480,1
2.1100,1.6198,1.6859,1.6480,1
2.1100,1.6295,1.6931,1.6423,1
2.1100,1.6246,1.6891,1.6456,1
2.1100,1.6367,1.6907,1.6552,1
2.1100,1.6834,1.6891,1.6609,1
2.1100,1.6875,1.6979,1.6617,1
2.1100,1.6786,1.7076,1.6649,1
2.1100,1.6867,1.7125,1.6609,1
2.1100,1.6947,1.7133,1.6560,1
2.1100,1.7536,1.7108,1.6568,1
2.1100,1.7415,1.7092,1.6657,1
2.1100,1.7310,1.7060,1.6625,1
2.1575,1.7358,1.6939,1.6552,1
2.1575,1.7253,1.6907,1.6456,1
2.1575,1.6786,1.6842,1.6456,1
2.1575,1.7205,1.6802,1.6512,1
2.1575,1.7197,1.6826,1.6464,1
2.1575,1.7165,1.6109,1.6472,1
2.1575,1.7141,1.6214,1.6512,1
2.1575,1.7076,1.6343,1.6488,1
2.1575,1.7084,1.6448,1.6472,1
2.1575,1.7133,1.6504,1.6480,1
2.1575,1.7108,1.6560,1.6593,1
2.1575,1.7141,1.6496,1.6544,1
2.1575,1.7173,1.6512,1.6536,1
2.1575,1.6593,1.6520,1.6464,1
2.1575,1.6617,1.6504,1.6536,1
2.1575,1.6714,1.7245,1.6568,1
2.1575,1.6657,1.7181,1.6601,1
2.1575,1.6778,1.7052,1.6544,1
2.1575,1.6947,1.6915,1.6496,1
2.1575,1.6963,1.6810,1.6568,1
2.1575,1.7012,1.6826,1.6496,1
2.1575,1.7100,1.6875,1.6528,1
2.1575,1.7108,1.6907,1.6480,1
2.1575,1.7302,1.6859,1.6778,1
2.1575,1.7374,1.6762,1.6705,1
2.1575,1.7262,1.6697,1.6689,1
2.1575,1.7390,1.6649,1.6544,1
2.1575,1.6867,1.6649,1.6778,1
2.1575,1.6770,1.6641,1.6754,1
2.1575,1.6746,1.6625,1.6714,1
2.1575,1.6730,1.6585,1.6722,1
2.1575,1.6665,1.6577,1.6754,1
2.1575,1.6770,1.6585,1.6899,1
2.1575,1.6681,1.6730,1.6520,1
2.1575,1.6585,1.6834,1.6560,1
2.1575,1.6625,1.6875,1.6552,1
2.1575,1.6609,1.6851,1.6689,1
2.1575,1.7052,1.6754,1.6544,1
2.1575,1.6979,1.6738,1.6552,1
2.1575,1.7004,1.6730,1.6560,1
2.1575,1.6939,1.6722,1.6577,1
2.1575,1.6883,1.6875,1.6641,1
2.1575,1.6786,1.6915,1.6625,1
2.1575,1.6867,1.6875,1.6883,1
2.1575,1.6955,1.6875,1.6810,1
2.1575,1.6947,1.6867,1.6818,1
2.1575,1.6907,1.6883,1.6859,1
2.1575,1.6899,1.6979,1.6842,1
2.1575,1.6859,1.7125,1.6826,1
2.1575,1.6834,1.7181,1.6786,1
2.1575,1.6899,1.7157,1.6826,1
2.1575,1.6915,1.7028,1.6762,1
2.1575,1.6931,1.6939,1.6794,1
2.1575,1.6786,1.6923,1.6601,1
2.1575,1.6794,1.6923,1.6609,1
2.1575,1.6842,1.6907,1.6842,1
2.1575,1.6891,1.6915,1.6891,1
2.1575,1.6947,1.6923,1.6859,1
2.1575,1.7028,1.6802,1.6971,1
2.1575,1.7076,1.6794,1.6907,1
2.1575,1.7165,1.6875,1.6826,1
2.1575,1.7237,1.6915,1.6834,1
2.1575,1.7262,1.6955,1.6681,1
2.1575,1.7399,1.6939,1.6665,1
2.1575,1.7342,1.6883,1.6689,1
2.1575,1.7302,1.6770,1.6496,1
2.1575,1.7286,1.6681,1.6448,1
2.1575,1.7213,1.6689,1.6504,1
2.1575,1.7205,1.6714,1.6407,1
2.1575,1.7189,1.6826,1.6488,1
2.1575,1.7141,1.6778,1.6512,1
2.1575,1.7076,1.6770,1.6681,1
2.1575,1.7028,1.6778,1.6738,1
2.1575,1.7044,1.6738,1.6762,1
2.1575,1.7125,1.6746,1.6802,1
2.1575,1.7173,1.6867,1.6859,1
2.1575,1.7157,1.6899,1.6842,1
2.1575,1.7229,1.6907,1.6730,1
2.1575,1.7262,1.6923,1.6689,1
2.1575,1.7253,1.6786,1.6641,1
2.1575,1.7237,1.6834,1.6705,1
2.1575,1.7237,1.6826,1.6504,1
2.1575,1.7278,1.6585,1.6496,1
2.1575,1.7278,1.6649,1.6504,1
2.1575,1.7197,1.6665,1.6464,1
2.1575,1.7141,1.6625,1.6448,1
2.1575,1.7173,1.6528,1.6415,1
2.1575,1.7141,1.6552,1.6472,1
2.1575,1.7092,1.6351,1.6464,1
2.1575,1.7076,1.6399,1.6488,1
2.1575,1.7068,1.6415,1.6488,1
2.1575,1.7084,1.6399,1.6472,1
2.1575,1.7052,1.6536,1.6448,1
2.1575,1.7052,1.6415,1.6399,1
2.2048,1.7084,1.6415,1.6423,1
2.2048,1.7092,1.6480,1.6423,1
2.2048,1.7068,1.6697,1.6415,1
2.2048,1.7108,1.6641,1.6423,1
2.2048,1.7116,1.6818,1.6480,1
2.2048,1.7165,1.6778,1.6552,1
2.2048,1.7181,1.6673,1.6456,1
2.2048,1.7245,1.6633,1.6367,1
2.2048,1.7270,1.6166,1.6407,1
2.2048,1.7294,1.6230,1.6464,1
2.2048,1.7310,1.6335,1.6528,1
2.2048,1.7350,1.6367,1.6544,1
2.2048,1.7358,1.6351,1.6544,1
2.2048,1.7350,1.6246,1.6536,1
2.2048,1.7358,1.6230,1.6536,1
2.2048,1.7342,1.6158,1.6480,1
2.2048,1.7326,1.6198,1.6681,1
2.2048,1.7237,1.6246,1.6778,1
2.2048,1.7237,1.6762,1.6714,1
2.2048,1.7189,1.6802,1.6681,1
2.2048,1.7189,1.6754,1.6601,1
2.2048,1.7165,1.6714,1.6504,1
2.2048,1.7165,1.6681,1.6617,1
2.2048,1.7181,1.6754,1.6577,1
2.2048,1.7157,1.6681,1.6593,1
2.2048,1.7157,1.6730,1.6617,1
2.2048,1.7189,1.6689,1.6440,1
2.2048,1.7237,1.6705,1.6448,1
2.2048,1.7237,1.6730,1.6464,1
2.2048,1.7165,1.6714,1.6456,1
2.2048,1.7189,1.6657,1.6488,1
2.2048,1.7229,1.6601,1.6520,1
2.2048,1.7237,1.6552,1.6423,1
2.2048,1.7221,1.6544,1.6472,1
2.2048,1.7270,1.6633,1.6464,1
2.2048,1.7318,1.6665,1.6423,1
2.2048,1.7390,1.6762,1.6391,1
2.2048,1.7334,1.6810,1.6367,1
2.2048,1.7342,1.6851,1.6399,1
2.2048,1.7431,1.6842,1.6383,1
2.2048,1.7382,1.6867,1.6375,1
2.2048,1.7342,1.6891,1.6359,1
2.2048,1.7350,1.6907,1.6335,1
2.2048,1.7310,1.6915,1.6359,1
2.2048,1.7302,1.6947,1.6367,1
2.2048,1.7245,1.6963,1.6440,1
2.2048,1.7205,1.6947,1.6472,1
2.2048,1.7229,1.6875,1.6448,1
2.2048,1.7213,1.6859,1.6407,1
2.2048,1.7213,1.6859,1.6464,1
2.2048,1.7229,1.6867,1.6480,1
2.2048,1.7253,1.6851,1.6472,1
2.2048,1.7213,1.6891,1.6480,1
2.2048,1.7213,1.6883,1.6448,1
2.2048,1.7213,1.6851,1.6480,1
2.2048,1.7205,1.6867,1.6367,1
2.2048,1.7157,1.6875,1.6383,1
2.2048,1.7221,1.6891,1.6399,1
2.2048,1.7245,1.6859,1.6432,1
2.2048,1.7245,1.6834,1.6464,1
2.2048,1.7213,1.6810,1.6391,1
2.2048,1.7253,1.6826,1.6415,1
2.2048,1.7302,1.6826,1.6407,1
2.2048,1.7270,1.6923,1.6432,1
2.2048,1.7286,1.6867,1.6391,1
2.2048,1.7286,1.6875,1.6415,1
2.2048,1.7294,1.6802,1.6432,1
2.2048,1.7237,1.6762,1.6472,1
2.2048,1.7205,1.6722,1.6536,1
2.2048,1.7197,1.6762,1.6496,1
2.2048,1.7253,1.6762,1.6536,1
2.2048,1.7189,1.6810,1.6520,1
2.2048,1.7173,1.6834,1.6536,1
2.2048,1.7262,1.6786,1.6512,1
2.2048,1.7253,1.6851,1.6528,1
2.2048,1.7229,1.6826,1.6585,1
2.2048,1.7205,1.6867,1.6568,1
2.2048,1.7229,1.6891,1.6528,1
2.2048,1.7229,1.6947,1.6496,1
2.2048,1.7221,1.6859,1.6512,1
2.2048,1.7221,1.6891,1.6504,1
2.2048,1.7253,1.6955,1.6512,1
2.2048,1.7270,1.6947,1.6488,1
2.2048,1.7245,1.6947,1.6585,1
2.2048,1.7253,1.6988,1.6552,1
2.2048,1.7318,1.6923,1.6496,1
2.2048,1.7358,1.6875,1.6488,1
2.2048,1.7342,1.6891,1.6512,1
2.2048,1.7350,1.6867,1.6480,1
2.2048,1.7374,1.7012,1.6464,1
2.2048,1.7358,1.7076,1.6407,1
2.2048,1.7310,1.6842,1.6399,1
2.2048,1.7302,1.6842,1.6343,1
2.2048,1.7358,1.6834,1.6343,1
2.2048,1.7326,1.6738,1.6335,1
2.2639,1.7278,1.6786,1.6359,1
2.2639,1.7318,1.6834,1.6375,1
2.2639,1.7318,1.6851,1.6327,1
2.2639,1.7286,1.6931,1.6432,1
2.2639,1.7173,1.6907,1.6512,1
2.2639,1.7253,1.6859,1.6504,1
2.2639,1.7294,1.7004,1.6448,1
2.2639,1.7294,1.6939,1.6746,1
2.2639,1.7245,1.6907,1.6601,1
2.2639,1.7294,1.6955,1.6585,1
2.2639,1.7318,1.6947,1.6536,1
2.2639,1.7270,1.6923,1.6496,1
2.2639,1.7270,1.6899,1.6544,1
2.2639,1.7350,1.6754,1.6448,1
2.2639,1.7439,1.6714,1.6343,1
2.2639,1.7358,1.6705,1.6278,1
2.2639,1.7350,1.6673,1.6375,1
2.2639,1.7350,1.6697,1.6174,1
2.2639,1.7350,1.6705,1.6270,1
2.2639,1.7350,1.6722,1.6295,1
2.2639,1.7318,1.6778,1.6383,1
2.2639,1.7326,1.6851,1.6432,1
2.2639,1.7294,1.6891,1.6657,1
2.2639,1.7213,1.6979,1.6649,1
2.2639,1.7221,1.6939,1.6617,1
2.2639,1.7237,1.6786,1.6738,1
2.2639,1.7221,1.6689,1.6705,1
2.2639,1.7229,1.6657,1.6657,1
2.2639,1.7213,1.6673,1.6641,1
2.2639,1.7213,1.6681,1.6625,1
2.2639,1.7213,1.6689,1.6609,1
2.2639,1.7181,1.6641,1.6641,1
2.2639,1.7213,1.6593,1.6415,1
2.2639,1.7253,1.6552,1.6440,1
2.2639,1.7278,1.6577,1.6448,1
2.2639,1.7278,1.6705,1.6504,1
2.2639,1.7294,1.6818,1.6520,1
2.2639,1.7318,1.6875,1.6568,1
2.2639,1.7302,1.6899,1.6552,1
2.2639,1.7270,1.6834,1.6633,1
2.2639,1.7253,1.6738,1.6633,1
2.2639,1.7318,1.6738,1.6617,1
2.2639,1.7310,1.6714,1.6577,1
2.2639,1.7294,1.6714,1.6560,1
2.2639,1.7262,1.6810,1.6585,1
2.2639,1.7262,1.6786,1.6536,1
2.2639,1.7229,1.6802,1.6512,1
2.2639,1.7181,1.6826,1.6504,1
2.2639,1.7270,1.6826,1.6593,1
2.2639,1.7294,1.6859,1.6536,1
2.2639,1.7294,1.6931,1.6649,1
2.2639,1.7270,1.6931,1.6585,1
2.2639,1.7278,1.6851,1.6617,1
2.2639,1.7455,1.6794,1.6593,1
2.2639,1.7423,1.6657,1.6625,1
2.2639,1.7407,1.6705,1.6681,1
2.2639,1.7463,1.6770,1.6705,1
2.2639,1.7487,1.6198,1.6762,1
2.2639,1.7415,1.6254,1.6689,1
2.2639,1.7390,1.6254,1.6681,1
2.2639,1.7439,1.6149,1.6568,1
2.2639,1.7431,1.6182,1.6585,1
2.2639,1.7423,1.6286,1.6585,1
2.2639,1.7278,1.6423,1.6577,1
2.2639,1.7294,1.6544,1.6568,1
2.2649,1.7310,1.6585,1.6504,1
2.2649,1.7326,1.6496,1.6488,1
2.2649,1.7326,1.6988,1.6423,1
2.2649,1.7342,1.6593,1.6448,1
2.2649,1.7390,1.6577,1.6432,1
2.2649,1.7358,1.6601,1.6472,1
2.2649,1.7366,1.6560,1.6544,1
2.2649,1.7503,1.6585,1.6496,1
2.2649,1.7455,1.6560,1.6512,1
2.2649,1.7463,1.6488,1.6536,1
2.2649,1.7463,1.6440,1.6528,1
2.2649,1.7471,1.6423,1.6512,1
2.2649,1.7463,1.6423,1.6472,1
2.2649,1.7439,1.6738,1.6399,1
2.2649,1.7399,1.6714,1.6440,1
2.2649,1.7415,1.6697,1.6367,1
2.2649,1.7415,1.6649,1.6222,1
2.2649,1.7253,1.6625,1.6278,1
2.2649,1.7318,1.6585,1.6295,1
2.2649,1.7358,1.6585,1.6351,1
2.2649,1.7366,1.6697,1.6343,1
2.2649,1.7318,1.6689,1.6335,1
2.2649,1.7326,1.6665,1.6375,1
2.2649,1.7399,1.6665,1.6335,1
2.2649,1.7407,1.6665,1.6286,1
2.2649,1.7423,1.6754,1.6295,1
2.2649,1.7447,1.6891,1.6343,1
2.2649,1.7463,1.6907,1.6327,1
2.2649,1.7399,1.6899,1.6383,1
2.2649,1.7390,1.6867,1.6295,1
2.2649,1.7407,1.6697,1.6278,1
2.2649,1.7439,1.6714,1.6254,1
2.2649,1.7399,1.6802,1.6190,1
2.2649,1.7302,1.6842,1.6335,1
2.2649,1.7262,1.6907,1.6367,1
2.2649,1.7278,1.6988,1.6238,1
2.2649,1.7278,1.6955,1.5948,1
2.2649,1.7278,1.6971,1.5956,1
2.2649,1.7358,1.7020,1.5996,1
2.2649,1.7358,1.7044,1.6021,1
2.2649,1.7326,1.7092,1.6012,1
2.2649,1.7278,1.7108,1.6037,1
2.2649,1.7366,1.7068,1.6480,1
2.2649,1.7423,1.7020,1.6367,1
2.2649,1.7447,1.7044,1.6343,1
2.2649,1.7439,1.7116,1.6415,1
2.2649,1.7439,1.7068,1.6697,1
2.2649,1.7439,1.7004,1.6641,1
2.2649,1.7374,1.6931,1.6560,1
2.2649,1.7302,1.6891,1.6536,1
2.2649,1.7423,1.6851,1.6609,1
2.2649,1.7471,1.6818,1.6609,1
2.2649,1.7463,1.6867,1.6222,1
2.2980,1.7431,1.7068,1.6286,1
2.2980,1.7471,1.7044,1.6246,1
2.2980,1.7463,1.6875,1.6238,1
2.2980,1.7423,1.6810,1.6278,1
2.2980,1.7455,1.6738,1.6343,1
2.2980,1.7479,1.6738,1.6343,1
2.2980,1.7527,1.6786,1.6335,1
2.2980,1.7527,1.6802,1.6295,1
2.2980,1.7487,1.6859,1.6327,1
2.2980,1.7479,1.6875,1.6351,1
2.2980,1.7471,1.6697,1.6351,1
2.2980,1.7439,1.6633,1.6391,1
2.2980,1.7423,1.6649,1.6464,1
2.2980,1.7439,1.6722,1.6496,1
2.2980,1.7374,1.6834,1.6496,1
2.2980,1.7399,1.6786,1.6464,1
2.2980,1.7326,1.6762,1.6448,1
2.2980,1.7245,1.6778,1.6456,1
2.2980,1.7334,1.6770,1.6448,1
2.2980,1.7318,1.6762,1.6383,1
2.2980,1.7342,1.6778,1.6375,1
2.2980,1.7278,1.6810,1.6407,1
2.2980,1.7286,1.6778,1.6423,1
2.2980,1.7302,1.6705,1.6440,1
2.2980,1.7415,1.6673,1.6423,1
2.2980,1.7382,1.6802,1.6472,1
2.2980,1.7455,1.6818,1.6456,1
2.2980,1.7455,1.6834,1.6448,1
2.2980,1.7366,1.6851,1.6456,1
2.2980,1.7358,1.6762,1.6472,1
2.2980,1.7374,1.6689,1.6415,1
2.2980,1.7479,1.6593,1.6423,1
2.2980,1.7487,1.6448,1.6399,1
2.2980,1.7447,1.6488,1.6423,1
2.2980,1.7326,1.6504,1.6383,1
2.2980,1.7310,1.6585,1.6335,1
2.2980,1.7326,1.6649,1.6375,1
2.2980,1.7318,1.6657,1.6375,1
2.2980,1.7221,1.6552,1.6432,1
2.2980,1.7221,1.6568,1.6472,1
2.2980,1.7213,1.6609,1.6488,1
2.2980,1.7189,1.6705,1.6472,1
2.2980,1.7173,1.6802,1.6536,1
2.2980,1.7189,1.6770,1.6456,1
2.2980,1.7262,1.6754,1.6456,1
2.2980,1.7310,1.6633,1.6552,1
2.2980,1.7286,1.6593,1.6552,1
2.2980,1.7382,1.6585,1.6609,1
2.2980,1.7487,1.6617,1.6544,1
2.2980,1.7471,1.6504,1.6496,1
2.2980,1.7439,1.6464,1.6504,1
2.2980,1.7423,1.6512,1.6480,1
2.2980,1.7439,1.6617,1.6448,1
2.2980,1.7705,1.6681,1.6504,1
2.2980,1.7656,1.6754,1.6907,1
2.2980,1.7584,1.6786,1.6673,1
2.2980,1.7584,1.6762,1.6697,1
2.2980,1.7552,1.6705,1.6601,1
2.2980,1.7584,1.6625,1.6617,1
2.2980,1.7584,1.6730,1.6625,1
2.2980,1.7584,1.6762,1.6625,1
2.2980,1.7568,1.6851,1.6681,1
2.2980,1.7536,1.6851,1.6657,1
2.2980,1.7278,1.6851,1.6697,1
2.2980,1.7326,1.6818,1.6335,1
2.2980,1.7407,1.6794,1.6480,1
2.2980,1.7407,1.6770,1.6448,1
2.2980,1.7350,1.6810,1.6504,1
2.3455,1.7431,1.6907,1.6568,1
2.3455,1.7447,1.6996,1.6601,1
2.3455,1.7463,1.7004,1.6641,1
2.3455,1.7479,1.6979,1.6689,1
2.3455,1.7511,1.6923,1.6689,1
2.3455,1.7495,1.6899,1.6577,1
2.3455,1.7447,1.6883,1.6536,1
2.3455,1.7439,1.6859,1.6560,1
2.3455,1.7463,1.6834,1.6673,1
2.3455,1.7439,1.6851,1.6625,1
2.3455,1.7366,1.6867,1.6625,1
2.3455,1.7407,1.6834,1.6617,1
2.3455,1.7382,1.6875,1.6601,1
2.3455,1.7374,1.6794,1.6528,1
2.3455,1.7366,1.6851,1.6528,1
2.3455,1.7407,1.6867,1.6536,1
2.3455,1.7399,1.6834,1.6585,1
2.3455,1.7350,1.6988,1.6585,1
2.3455,1.7326,1.6988,1.6472,1
2.3455,1.7334,1.7012,1.6456,1
2.3455,1.7270,1.7052,1.6351,1
2.3455,1.7221,1.7060,1.6335,1
2.3455,1.7262,1.7052,1.6367,1
2.3455,1.7253,1.7125,1.6383,1
2.3455,1.7229,1.7052,1.6359,1
2.3455,1.7181,1.7020,1.6399,1
2.3455,1.7205,1.7020,1.6432,1
2.3455,1.7189,1.6907,1.6423,1
2.3455,1.7197,1.6963,1.6432,1
2.3455,1.7165,1.6617,1.6423,1
2.3455,1.7213,1.6641,1.6440,1
2.3455,1.7205,1.6383,1.6456,1
2.3455,1.7181,1.6415,1.6432,1
2.3455,1.7213,1.6391,1.6383,1
2.3455,1.7270,1.6423,1.6423,1
2.3455,1.7270,1.6415,1.6383,1
2.3455,1.7262,1.6472,1.6359,1
2.3455,1.7262,1.6488,1.6206,1
2.3455,1.7310,1.6544,1.6214,1
2.3455,1.7326,1.6923,1.6270,1
2.3455,1.7318,1.6802,1.6270,1
2.3455,1.7302,1.7076,1.6367,1
2.3455,1.7334,1.7004,1.6351,1
2.3455,1.7334,1.6915,1.6351,1
2.3455,1.7245,1.6802,1.6295,1
2.3455,1.7278,1.6714,1.6319,1
2.3455,1.7326,1.6657,1.6327,1
2.3455,1.7358,1.6641,1.6472,1
2.3455,1.7334,1.6568,1.6448,1
2.3455,1.7294,1.6520,1.6391,1
2.3455,1.7310,1.6568,1.6407,1
2.3455,1.7318,1.6464,1.6335,1
2.3455,1.7302,1.6464,1.6319,1
2.3455,1.7294,1.6528,1.6319,1
2.3455,1.7358,1.6625,1.6367,1
2.3455,1.7382,1.6770,1.6351,1
2.3455,1.7334,1.6810,1.6335,1
2.3455,1.7366,1.6802,1.6222,1
2.3455,1.7366,1.6754,1.6198,1
2.3455,1.7382,1.6754,1.6214,1
2.3455,1.7374,1.6697,1.6238,1
2.3455,1.7366,1.6689,1.6214,1
2.3455,1.7366,1.6673,1.6230,1
2.3455,1.7350,1.6649,1.6254,1
2.3455,1.7294,1.6689,1.6359,1
2.3455,1.7302,1.6681,1.6391,1
2.3455,1.7334,1.6770,1.6407,1
2.3455,1.7278,1.6794,1.6488,1
2.3455,1.7286,1.6851,1.6496,1
2.3455,1.7294,1.6762,1.6504,1
2.3455,1.7294,1.6794,1.6552,1
2.3455,1.7189,1.6802,1.6568,1
2.3455,1.7189,1.6810,1.6568,1
2.3455,1.7221,1.6786,1.6673,1
2.3455,1.7253,1.6802,1.6568,1
2.3455,1.7205,1.6834,1.6528,1
2.3455,1.7213,1.6762,1.6520,1
2.3455,1.7262,1.6770,1.6544,1
2.3455,1.7262,1.6689,1.6528,1
2.3455,1.7270,1.6746,1.6544,1
2.3455,1.7245,1.6818,1.6472,1
2.3455,1.7350,1.6883,1.6472,1
2.3455,1.7294,1.6891,1.6456,1
2.3455,1.7245,1.6891,1.6327,1
2.3455,1.7270,1.6875,1.6367,1
2.3455,1.7318,1.6770,1.6383,1
2.3455,1.7294,1.6705,1.6343,1
2.3455,1.7245,1.6633,1.6319,1
2.3455,1.7229,1.6585,1.6391,1
2.3455,1.7189,1.6617,1.6448,1
2.3455,1.7205,1.6552,1.6536,1
2.3455,1.7197,1.6512,1.6544,1
2.3455,1.7229,1.6520,1.6536,1
2.3455,1.7245,1.6568,1.6544,1
2.3455,1.7237,1.6560,1.6601,1
2.3930,1.7173,1.6681,1.6585,1
2.3930,1.7157,1.6730,1.6633,1
2.3930,1.7189,1.6705,1.6649,1
2.3930,1.7173,1.6705,1.6633,1
2.3930,1.7221,1.6657,1.6617,1
2.3930,1.7229,1.6705,1.6520,1
2.3930,1.7237,1.6762,1.6480,1
2.3930,1.7237,1.6810,1.6512,1
2.3930,1.7221,1.6802,1.6488,1
2.3930,1.7189,1.6786,1.6440,1
2.3930,1.7270,1.6665,1.6448,1
2.3930,1.7253,1.6657,1.6407,1
2.3930,1.7229,1.6714,1.6423,1
2.3930,1.7237,1.6834,1.6407,1
2.3930,1.7245,1.6891,1.6375,1
2.3930,1.7237,1.6899,1.6335,1
2.3930,1.7197,1.6859,1.6359,1
2.3930,1.7229,1.6770,1.6399,1
2.3930,1.7390,1.6754,1.6456,1
2.3930,1.7366,1.6149,1.6448,1
2.3930,1.7326,1.6238,1.6456,1
2.3930,1.7326,1.6303,1.6577,1
2.3930,1.7302,1.6335,1.6544,1
2.3930,1.7294,1.6351,1.6552,1
2.3930,1.7237,1.6440,1.6609,1
2.3930,1.6568,1.6464,1.6657,1
2.3930,1.6697,1.6512,1.6794,1
2.3930,1.6689,1.6560,1.6697,1
2.3930,1.6601,1.6512,1.6665,1
2.3930,1.6681,1.7092,1.6657,1
2.3930,1.6754,1.6979,1.6609,1
2.3930,1.6746,1.6867,1.6496,1
2.3930,1.6738,1.6842,1.6472,1
2.3930,1.6802,1.6818,1.6544,1
2.3930,1.6859,1.6818,1.6456,1
2.3930,1.7487,1.6770,1.6423,1
2.3930,1.7390,1.6705,1.6270,1
2.3930,1.7310,1.6665,1.6375,1
2.3930,1.7237,1.6657,1.6399,1
2.3930,1.7157,1.6665,1.6407,1
2.3930,1.7092,1.6722,1.6456,1
2.3930,1.7092,1.6770,1.6464,1
2.3930,1.7092,1.6770,1.6544,1
2.3930,1.7036,1.6802,1.6504,1
2.3930,1.7004,1.6681,1.6544,1
2.3930,1.7060,1.6625,1.6568,1
2.3930,1.7028,1.6617,1.6585,1
2.3930,1.7068,1.6625,1.6568,1
2.3930,1.7076,1.6641,1.6568,1
2.3930,1.7116,1.6673,1.6472,1
2.3930,1.7076,1.6714,1.6488,1
2.3930,1.6842,1.6899,1.6504,1
2.3930,1.6915,1.6947,1.6504,1
2.3930,1.6955,1.6923,1.6480,1
2.3930,1.6996,1.6971,1.6415,1
2.3930,1.6988,1.7028,1.6432,1
2.3930,1.7020,1.7060,1.6375,1
2.3930,1.6649,1.7084,1.6440,1
2.3930,1.6722,1.7084,1.6399,1
2.3930,1.6738,1.7108,1.6488,1
2.3930,1.6295,1.7116,1.6423,1
2.3930,1.6609,1.6963,1.6440,1
2.3930,1.6681,1.6923,1.6415,1
2.3930,1.6722,1.6899,1.6375,1
2.3930,1.6762,1.6883,1.6375,1
2.3930,1.6770,1.6859,1.6391,1
2.3930,1.6842,1.6859,1.6472,1
2.3930,1.7278,1.6891,1.6440,1
2.3930,1.7165,1.6996,1.6448,1
2.3930,1.7165,1.7044,1.6399,1
2.3930,1.7761,1.6996,1.6440,1
2.3930,1.8495,1.6907,1.6472,1
2.3930,1.8317,1.6818,1.6496,1
2.3930,1.8116,1.6802,1.6520,1
2.3930,1.7955,1.6802,1.6552,1
2.3930,1.7826,1.6859,1.6536,1
2.3930,1.7697,1.6875,1.6536,1
2.3930,1.7600,1.6899,1.6504,1
2.3930,1.7600,1.6875,1.6488,1
2.3930,1.7487,1.6851,1.6536,1
2.3930,1.7350,1.6851,1.6633,1
2.3930,1.6552,1.6939,1.6585,1
2.3930,1.6665,1.7012,1.6560,1
2.3930,1.6802,1.6979,1.6528,1
2.3930,1.6939,1.6899,1.6544,1
2.3930,1.7068,1.6899,1.6568,1
2.3930,1.7181,1.6762,1.6544,1
2.3930,1.7270,1.6625,1.6560,1
2.3930,1.7342,1.6657,1.6536,1
2.3930,1.7495,1.6617,1.6512,1
2.3930,1.7624,1.6705,1.6407,1
2.3930,1.7769,1.6641,1.6327,1
2.3930,1.7785,1.6649,1.6391,1
2.3930,1.7801,1.6697,1.6391,1
2.3930,1.7810,1.6762,1.6415,1
2.4410,1.7785,1.6746,1.6399,1
2.4410,1.7793,1.6955,1.6480,1
2.4410,1.7826,1.7068,1.5988,1
2.4410,1.8003,1.6955,1.6077,1
2.4410,1.7914,1.6883,1.6133,1
2.4410,1.7842,1.6649,1.6190,1
2.4410,1.7737,1.6657,1.6375,1
2.4410,1.7664,1.6673,1.6359,1
2.4410,1.7632,1.6681,1.6351,1
2.4410,1.7592,1.6730,1.6335,1
2.4410,1.7600,1.6802,1.6335,1
2.4410,1.7560,1.6770,1.6246,1
2.4410,1.7495,1.6754,1.6657,1
2.4410,1.7302,1.6810,1.6585,1
2.4410,1.7334,1.6818,1.6496,1
2.4410,1.7318,1.6955,1.6383,1
2.4410,1.7278,1.6963,1.6238,1
2.4410,1.7358,1.6786,1.6182,1
2.4410,1.7358,1.6786,1.6206,1
2.4410,1.7334,1.7173,1.6141,1
2.4410,1.7318,1.7229,1.6125,1
2.4410,1.7503,1.7149,1.6141,1
2.4410,1.7495,1.7076,1.6141,1
2.4410,1.7447,1.6996,1.6109,1
2.4410,1.7366,1.7036,1.6174,1
2.4410,1.7390,1.7012,1.6238,1
2.4410,1.7318,1.7012,1.6262,1
2.4410,1.7278,1.7205,1.6262,1
2.4410,1.7310,1.7262,1.6746,1
2.4410,1.7366,1.6859,1.6778,1
2.4410,1.7544,1.6722,1.6778,1
2.4410,1.7366,1.6705,1.6714,1
2.4410,1.7479,1.6738,1.6689,1
2.4410,1.7544,1.6818,1.6681,1
2.4410,1.7624,1.6842,1.6649,1
2.4410,1.7544,1.6899,1.6649,1
2.4410,1.7600,1.6963,1.6641,1
2.4410,1.7640,1.6996,1.6649,1
2.4410,1.7640,1.6979,1.6190,1
2.4410,1.7600,1.6971,1.6222,1
2.4410,1.7487,1.6988,1.6286,1
2.4410,1.7511,1.7068,1.6343,1
2.4410,1.7431,1.7116,1.6367,1
2.4410,1.7399,1.7084,1.6432,1
2.4410,1.7407,1.7028,1.6488,1
2.4410,1.7463,1.7004,1.6585,1
2.4410,1.7503,1.7052,1.6601,1
2.4410,1.7495,1.7036,1.6633,1
2.4410,1.7519,1.7108,1.6593,1
2.4410,1.7503,1.7100,1.6568,1
2.4410,1.7544,1.7060,1.6536,1
2.4410,1.7527,1.6996,1.6528,1
2.4410,1.7608,1.6947,1.6601,1
2.4410,1.7624,1.6939,1.6593,1
2.4410,1.7624,1.7028,1.6585,1
2.4410,1.7600,1.7084,1.6488,1
2.4410,1.7616,1.7004,1.6456,1
2.4410,1.7608,1.6963,1.6407,1
2.4410,1.7576,1.6842,1.6448,1
2.4410,1.7834,1.6802,1.6456,1
2.4410,1.7729,1.6818,1.6456,1
2.4410,1.7713,1.6778,1.6448,1
2.4410,1.7608,1.6842,1.6383,1
2.4410,1.7600,1.6609,1.6375,1
2.4410,1.7785,1.6633,1.6367,1
2.4410,1.7737,1.6633,1.6415,1
2.4410,1.7681,1.6633,1.6399,1
2.4410,1.7689,1.6544,1.6432,1
2.4410,1.7745,1.6593,1.6383,1
2.4410,1.7495,1.6609,1.6391,1
2.4410,1.7511,1.6657,1.6399,1
2.4410,1.7544,1.6762,1.6383,1
2.4410,1.7608,1.6617,1.6415,1
2.4410,1.7640,1.6577,1.6367,1
2.4410,1.7455,1.6560,1.6375,1
2.4410,1.7527,1.6560,1.6351,1
2.4410,1.7616,1.6568,1.6383,1
2.4410,1.7584,1.6657,1.6399,1
2.4410,1.7568,1.6633,1.6423,1
2.4410,1.7584,1.6633,1.6472,1
2.4410,1.7632,1.6609,1.6440,1
2.4410,1.7616,1.6617,1.6464,1
2.4410,1.7552,1.6722,1.6488,1
2.4410,1.7447,1.7020,1.6577,1
2.4410,1.7689,1.6947,1.6609,1
2.4410,1.7608,1.6826,1.6593,1
2.4410,1.7552,1.6705,1.6609,1
2.4410,1.7527,1.6633,1.6617,1
2.4410,1.7471,1.6577,1.6609,1
2.4410,1.7447,1.6552,1.6649,1
2.4410,1.7431,1.6601,1.6714,1
2.4410,1.7439,1.6480,1.6665,1
2.4410,1.7495,1.6456,1.6617,1
2.4410,1.7576,1.6448,1.6552,1
2.4410,1.7334,1.6448,1.6504,1
2.4410,1.7455,1.6512,1.6464,1
2.4890,1.7423,1.6601,1.6407,1
2.4890,1.7455,1.6681,1.6415,1
2.4890,1.7471,1.6649,1.6440,1
2.4890,1.7479,1.6705,1.6448,1
2.4890,1.7399,1.6641,1.6415,1
2.4890,1.7382,1.6714,1.6432,1
2.4890,1.7358,1.6722,1.6488,1
2.4890,1.7342,1.6689,1.6552,1
2.4890,1.7358,1.6697,1.6536,1
2.4890,1.7286,1.6705,1.6593,1
2.4890,1.7286,1.6907,1.6697,1
2.4890,1.7318,1.6851,1.6649,1
2.4890,1.7318,1.6947,1.6617,1
2.4890,1.7318,1.6979,1.6585,1
2.4890,1.7390,1.6931,1.6568,1
2.4890,1.7455,1.6875,1.6754,1
2.4890,1.7471,1.6786,1.6705,1
2.4890,1.7471,1.6786,1.6681,1
2.4890,1.7471,1.6681,1.6673,1
2.4890,1.7511,1.6633,1.6633,1
2.4890,1.7479,1.6464,1.6568,1
2.4890,1.7471,1.6560,1.6568,1
2.4890,1.7487,1.6568,1.6609,1
2.4890,1.7511,1.6383,1.6560,1
2.4890,1.7511,1.6520,1.6544,1
2.4890,1.7455,1.6593,1.6383,1
2.4890,1.7447,1.6681,1.6399,1
2.4890,1.7463,1.6722,1.6432,1
2.4890,1.7447,1.6842,1.6512,1
2.4890,1.7431,1.6988,1.6536,1
2.4890,1.7527,1.6939,1.6552,1
2.4890,1.7511,1.6738,1.6593,1
2.4890,1.7519,1.6617,1.6641,1
2.4890,1.7616,1.6746,1.6625,1
2.4890,1.7600,1.6673,1.6657,1
2.4890,1.7503,1.6633,1.6754,1
2.4890,1.7495,1.6593,1.6826,1
2.4890,1.7511,1.6585,1.6867,1
2.4890,1.7568,1.6593,1.6931,1
2.4890,1.7608,1.6512,1.6891,1
2.4890,1.7519,1.6536,1.6842,1
2.4890,1.7511,1.6722,1.6891,1
2.4890,1.7544,1.6770,1.6818,1
2.4890,1.7463,1.6738,1.6834,1
2.4890,1.7471,1.6681,1.6762,1
2.4890,1.7608,1.6633,1.6673,1
2.4890,1.7560,1.6625,1.6568,1
2.4890,1.7479,1.6665,1.6528,1
2.4890,1.7455,1.6722,1.6423,1
2.4890,1.7463,1.6714,1.6415,1
2.4890,1.7544,1.6947,1.6464,1
2.4890,1.7576,1.6915,1.6456,1
2.4890,1.7536,1.6875,1.6480,1
2.4890,1.7552,1.6883,1.6488,1
2.4890,1.7463,1.6931,1.6681,1
2.4890,1.7495,1.7020,1.6722,1
2.4890,1.7592,1.7028,1.6762,1
2.4890,1.7640,1.7028,1.6730,1
2.4890,1.7673,1.6979,1.6778,1
2.4890,1.7632,1.6971,1.6778,1
2.4890,1.7584,1.6730,1.6730,1
2.4890,1.7560,1.6617,1.6705,1
2.4890,1.7616,1.6641,1.6818,1
2.4890,1.7576,1.6681,1.6810,1
2.4890,1.7664,1.6722,1.6657,1
2.4890,1.7624,1.6754,1.6617,1
2.4890,1.7656,1.6859,1.6585,1
2.4890,1.7681,1.6883,1.6794,1
2.4890,1.7632,1.6891,1.6689,1
2.4890,1.7624,1.6907,1.6786,1
2.4890,1.7640,1.6931,1.6786,1
2.4890,1.7648,1.7028,1.6778,1
2.4890,1.7608,1.6988,1.6633,1
2.4890,1.7608,1.6963,1.6617,1
2.4890,1.7761,1.6963,1.6609,1
2.4890,1.7713,1.6979,1.6568,1
2.4890,1.7632,1.6963,1.6568,1
2.4890,1.7697,1.6915,1.6391,1
2.4890,1.7721,1.6859,1.6423,1
2.4890,1.7705,1.6810,1.6391,1
2.4890,1.7737,1.6794,1.6423,1
2.4890,1.7769,1.6883,1.6504,1
2.4890,1.7761,1.6955,1.6544,1
2.4890,1.7745,1.6979,1.5940,1
2.4890,1.7616,1.6979,1.6037,1
2.4890,1.7640,1.6875,1.6174,1
2.4890,1.7713,1.6762,1.6254,1
2.4890,1.7689,1.6722,1.6343,1
2.4890,1.7705,1.6754,1.6343,1
2.4890,1.7777,1.6738,1.6262,1
2.4890,1.7793,1.6762,1.6343,1
2.4890,1.7801,1.6697,1.6286,1
2.4890,1.7810,1.6714,1.6286,1
2.4890,1.7850,1.6738,1.6899,1
2.4890,1.7850,1.6786,1.6786,1
2.4890,1.7850,1.6875,1.6697,1
2.5365,1.7834,1.6931,1.6625,1
2.5365,1.7850,1.6971,1.6456,1
2.5365,1.7850,1.6842,1.6472,1
2.5365,1.7834,1.6834,1.6448,1
2.5365,1.7826,1.6778,1.6303,1
2.5365,1.7858,1.6818,1.6278,1
2.5365,1.7882,1.6834,1.6246,1
2.5365,1.7874,1.6818,1.6166,1
2.5365,1.7842,1.6762,1.6133,1
2.5365,1.7938,1.6714,1.6206,1
2.5365,1.7882,1.6689,1.6278,1
2.5365,1.7858,1.6673,1.6327,1
2.5365,1.7818,1.6770,1.6278,1
2.5365,1.7826,1.6851,1.6335,1
2.5365,1.7826,1.7076,1.6375,1
2.5365,1.7785,1.7020,1.6512,1
2.5365,1.7801,1.6939,1.6520,1
2.5365,1.7906,1.6851,1.6415,1
2.5365,1.7938,1.6762,1.6448,1
2.5365,1.7834,1.6722,1.6423,1
2.5365,1.7890,1.6722,1.6440,1
2.5365,1.7850,1.6746,1.6464,1
2.5365,1.7874,1.6802,1.6488,1
2.5365,1.7810,1.6818,1.6512,1
2.5365,1.7842,1.6649,1.6738,1
2.5365,1.7850,1.6722,1.6609,1
2.5365,1.7866,1.6786,1.6528,1
2.5365,1.7769,1.6714,1.6722,1
2.5365,1.7793,1.6778,1.6762,1
2.5365,1.7906,1.6786,1.6738,1
2.5365,1.7890,1.6762,1.6689,1
2.5365,1.7890,1.6834,1.6633,1
2.5365,1.7906,1.6834,1.6625,1
2.5365,1.7890,1.6810,1.6609,1
2.5365,1.7826,1.6802,1.6399,1
2.5365,1.7842,1.6730,1.6432,1
2.5365,1.7818,1.6697,1.6480,1
2.5365,1.7834,1.6842,1.6496,1
2.5365,1.7769,1.6867,1.6504,1
2.5365,1.7664,1.6963,1.6512,1
2.5365,1.7640,1.7036,1.6488,1
2.5365,1.7656,1.7020,1.6472,1
2.5365,1.7656,1.7020,1.6472,1
2.5365,1.7729,1.6875,1.6520,1
2.5365,1.7785,1.6802,1.6544,1
2.5365,1.7777,1.6762,1.6520,1
2.5365,1.7818,1.6738,1.6528,1
2.5365,1.7810,1.6794,1.6423,1
2.5365,1.7810,1.6770,1.6391,1
2.5365,1.7874,1.6738,1.6456,1
2.5365,1.7850,1.6738,1.6472,1
2.5365,1.8212,1.6657,1.6512,1
2.5365,1.8204,1.6617,1.6512,1
2.5365,1.8148,1.6738,1.6496,1
2.5365,1.8237,1.6802,1.6472,1
2.5365,1.8196,1.6859,1.6480,1
2.5365,1.8124,1.6859,1.6480,1
2.5365,1.8084,1.6738,1.6544,1
2.5365,1.8100,1.6738,1.6585,1
2.5365,1.8011,1.6657,1.6488,1
2.5365,1.8067,1.6689,1.6536,1
2.5365,1.7729,1.6714,1.6504,1
2.5365,1.7721,1.6689,1.6512,1
2.5365,1.7777,1.6673,1.6504,1
2.5365,1.7697,1.6689,1.6568,1
2.5365,1.7745,1.6705,1.6512,1
2.5365,1.7729,1.6770,1.6488,1
2.5365,1.7810,1.6826,1.6504,1
2.5365,1.7882,1.6826,1.6496,1
2.5365,1.7987,1.6883,1.6512,1
2.5365,1.8011,1.6681,1.6432,1
2.5365,1.7995,1.6568,1.6480,1
2.5365,1.8059,1.6512,1.6472,1
2.5365,1.8084,1.6536,1.6552,1
2.5365,1.8100,1.6528,1.6504,1
2.5365,1.8100,1.6544,1.6568,1
2.5365,1.8172,1.6625,1.6593,1
2.5365,1.8084,1.6641,1.6593,1
2.5365,1.8019,1.6641,1.6649,1
2.5365,1.8003,1.6625,1.6657,1
2.5365,1.7914,1.6746,1.6649,1
2.5365,1.7882,1.6794,1.6577,1
2.5365,1.7834,1.6891,1.6544,1
2.5365,1.7785,1.6883,1.6593,1
2.5365,1.7785,1.6842,1.6560,1
2.5365,1.7721,1.6802,1.6544,1
2.5365,1.7632,1.6657,1.6552,1
2.5365,1.7729,1.6625,1.6560,1
2.5365,1.7745,1.6601,1.6560,1
2.5365,1.7753,1.6641,1.6544,1
2.5365,1.7801,1.6625,1.6568,1
2.5365,1.7842,1.6625,1.6633,1
2.5365,1.7834,1.6625,1.6673,1
2.5365,1.7761,1.6633,1.6552,1
2.5365,1.7729,1.6697,1.6552,1
2.5840,1.7769,1.6754,1.6625,1
2.5840,1.7906,1.6818,1.6625,1
2.5840,1.7826,1.6818,1.6609,1
2.5840,1.7850,1.6786,1.6601,1
2.5840,1.7850,1.6705,1.6568,1
2.5840,1.7850,1.6746,1.6577,1
2.5840,1.7793,1.6794,1.6560,1
2.5840,1.7777,1.6818,1.6633,1
2.5840,1.7834,1.6826,1.6681,1
2.5840,1.7818,1.6842,1.6665,1
2.5840,1.7810,1.6802,1.6689,1
2.5840,1.7648,1.6738,1.6746,1
2.5840,1.7761,1.6714,1.6810,1
2.5840,1.7721,1.6778,1.6746,1
2.5840,1.7697,1.6859,1.6762,1
2.5840,1.7697,1.6867,1.6762,1
2.5840,1.7785,1.6859,1.6794,1
2.5840,1.7793,1.6834,1.6778,1
2.5840,1.7810,1.6810,1.6705,1
2.5840,1.7842,1.6770,1.6738,1
2.5840,1.7882,1.6746,1.6617,1
2.5840,1.7938,1.6778,1.6577,1
2.5840,1.7866,1.6802,1.6641,1
2.5840,1.7818,1.6786,1.6633,1
2.5840,1.7914,1.6778,1.6577,1
2.5840,1.7922,1.6794,1.6544,1
2.5840,1.7906,1.6818,1.6568,1
2.5840,1.7922,1.6746,1.6520,1
2.5840,1.7955,1.6770,1.6560,1
2.5840,1.7866,1.6754,1.6568,1
2.5840,1.7834,1.6770,1.6633,1
2.5840,1.7866,1.6657,1.6722,1
2.5840,1.7866,1.6657,1.6673,1
2.5840,1.7898,1.6689,1.6673,1
2.5840,1.7842,1.6730,1.6730,1
2.5840,1.7850,1.6705,1.6778,1
2.5840,1.7850,1.6714,1.6746,1
2.5840,1.7761,1.6786,1.6834,1
2.5840,1.7721,1.6746,1.6754,1
2.5840,1.7785,1.6714,1.6689,1
2.5840,1.7801,1.6697,1.6665,1
2.5840,1.7801,1.6842,1.6601,1
2.5840,1.7785,1.6875,1.6577,1
2.5840,1.7801,1.6875,1.6577,1
2.5840,1.7785,1.6818,1.6657,1
2.5840,1.7866,1.6738,1.6625,1
2.5840,1.7834,1.6689,1.6617,1
2.5840,1.7947,1.6673,1.6528,1
2.5840,1.7922,1.6657,1.6536,1
2.5840,1.7914,1.6681,1.6577,1
2.5840,1.7938,1.6697,1.6568,1
2.5840,1.7914,1.6641,1.6609,1
2.5840,1.7930,1.6818,1.6512,1
2.5840,1.7930,1.6842,1.6520,1
2.5840,1.7898,1.6851,1.6432,1
2.5840,1.7866,1.6931,1.6423,1
2.5840,1.7914,1.6923,1.6496,1
2.5840,1.7874,1.6899,1.6472,1
2.5840,1.7898,1.6867,1.6504,1
2.5840,1.7906,1.6867,1.6528,1
2.5840,1.7850,1.6883,1.6528,1
2.5840,1.7890,1.6947,1.6488,1
2.5840,1.7906,1.6842,1.6544,1
2.5840,1.7947,1.6746,1.6496,1
2.5840,1.7947,1.6730,1.6528,1
2.5840,1.7882,1.6705,1.6568,1
2.5840,1.7858,1.6738,1.6512,1
2.5840,1.7898,1.6730,1.6544,1
2.5840,1.7890,1.6802,1.6552,1
2.5840,1.7898,1.6883,1.6359,1
2.5840,1.7922,1.6867,1.6407,1
2.5840,1.7938,1.6802,1.6351,1
2.5840,1.7930,1.6617,1.6343,1
2.5840,1.7882,1.6665,1.6383,1
2.5840,1.7906,1.6665,1.6343,1
2.5840,1.7898,1.6689,1.6343,1
2.5840,1.7834,1.6697,1.6391,1
2.5840,1.7737,1.6762,1.6351,1
2.5840,1.7810,1.6818,1.6367,1
2.5840,1.8003,1.6746,1.6544,1
2.5840,1.7963,1.6738,1.6544,1
2.5840,1.7963,1.6770,1.6577,1
2.5840,1.7987,1.6851,1.6560,1
2.5840,1.7987,1.6802,1.6520,1
2.5840,1.7963,1.6794,1.6609,1
2.5840,1.7955,1.6738,1.6730,1
2.5840,1.8035,1.6601,1.6609,1
2.5840,1.8116,1.6665,1.6609,1
2.5840,1.8059,1.6641,1.6601,1
2.5840,1.7858,1.6633,1.6560,1
2.5840,1.7930,1.6198,1.6552,1
2.5840,1.7906,1.6222,1.6536,1
2.5840,1.7850,1.6222,1.6552,1
2.5840,1.7874,1.6230,1.6585,1
2.5840,1.7898,1.6295,1.6560,1
2.6305,1.7906,1.6351,1.6423,1
2.6305,1.7866,1.6593,1.6488,1
2.6305,1.7850,1.6528,1.6512,1
2.6305,1.7842,1.6488,1.6544,1
2.6305,1.7777,1.6423,1.6585,1
2.6305,1.7761,1.6899,1.6577,1
2.6305,1.7769,1.6842,1.6609,1
2.6305,1.7818,1.6818,1.6641,1
2.6305,1.7801,1.6714,1.6657,1
2.6305,1.7793,1.6689,1.6714,1
2.6305,1.7858,1.6714,1.6794,1
2.6305,1.7737,1.6609,1.6794,1
2.6305,1.7745,1.6577,1.6883,1
2.6305,1.7761,1.6585,1.6867,1
2.6305,1.7850,1.6657,1.6851,1
2.6305,1.8019,1.6560,1.6947,1
2.6305,1.7987,1.6544,1.6891,1
2.6305,1.7963,1.6464,1.6826,1
2.6305,1.7987,1.6552,1.6810,1
2.6305,1.7955,1.6585,1.6754,1
2.6305,1.7866,1.6560,1.6568,1
2.6305,1.8011,1.6552,1.6560,1
2.6305,1.8003,1.6560,1.6423,1
2.6305,1.7979,1.6528,1.6432,1
2.6305,1.7922,1.6536,1.6504,1
2.6305,1.7753,1.6585,1.6399,1
2.6305,1.7801,1.6649,1.6423,1
2.6305,1.7777,1.6770,1.6472,1
2.6305,1.7729,1.7068,1.6504,1
2.6305,1.7616,1.7044,1.6423,1
2.6305,1.7705,1.7044,1.6536,1
2.6305,1.7713,1.6947,1.6512,1
2.6305,1.7737,1.6899,1.6520,1
2.6305,1.7785,1.6899,1.6544,1
2.6305,1.7826,1.6867,1.6480,1
2.6305,1.7810,1.6867,1.6464,1
2.6305,1.7753,1.6875,1.6472,1
2.6305,1.7801,1.6883,1.6496,1
2.6305,1.7922,1.6641,1.6480,1
2.6305,1.8084,1.6601,1.6496,1
2.6305,1.7995,1.6601,1.6609,1
2.6305,1.8019,1.6681,1.6544,1
2.6305,1.7979,1.6697,1.6577,1
2.6305,1.7874,1.6641,1.6423,1
2.6305,1.7858,1.6810,1.6375,1
2.6305,1.7898,1.6786,1.6375,1
2.6305,1.7922,1.6762,1.6133,1
2.6305,1.7898,1.6738,1.6109,1
2.6305,1.7705,1.6738,1.6198,1
2.6305,1.7697,1.6794,1.6262,1
2.6305,1.7745,1.6649,1.6117,1
2.6305,1.7737,1.6609,1.6182,1
2.6305,1.7761,1.6641,1.6206,1
2.6305,1.7834,1.6754,1.6335,1
2.6305,1.7834,1.6609,1.6496,1
2.6305,1.7793,1.6689,1.6456,1
2.6305,1.7777,1.6754,1.6625,1
2.6305,1.7810,1.6738,1.6617,1
2.6305,1.7914,1.6705,1.6496,1
2.6305,1.7874,1.6657,1.6415,1
2.6305,1.7882,1.6754,1.6423,1
2.6305,1.7632,1.6778,1.6367,1
2.6305,1.7624,1.6746,1.6343,1
2.6305,1.7648,1.6722,1.6335,1
2.6305,1.7673,1.6730,1.6206,1
2.6305,1.7664,1.6714,1.6238,1
2.6305,1.7648,1.6641,1.6182,1
2.6305,1.7616,1.6665,1.6230,1
2.6305,1.7640,1.6665,1.6222,1
2.6305,1.7689,1.6480,1.6262,1
2.6305,1.7664,1.6415,1.6311,1
2.6305,1.7898,1.6319,1.6383,1
2.6305,1.7930,1.6311,1.6415,1
2.6305,1.7914,1.6319,1.6423,1
2.6305,1.7858,1.6383,1.6359,1
2.6305,1.7834,1.6359,1.6359,1
2.6305,1.7826,1.6359,1.6432,1
2.6305,1.7866,1.6343,1.6520,1
2.6305,1.7769,1.6375,1.6593,1
2.6305,1.7729,1.6544,1.6665,1
2.6305,1.7576,1.6649,1.6617,1
2.6305,1.7568,1.6762,1.6544,1
2.6305,1.7584,1.6810,1.6568,1
2.6305,1.7576,1.6875,1.6552,1
2.6305,1.7576,1.6778,1.6593,1
2.6305,1.7592,1.6730,1.6568,1
2.6305,1.7608,1.6633,1.6625,1
2.6305,1.7616,1.6617,1.6528,1
2.6305,1.7689,1.6593,1.6440,1
2.6305,1.7624,1.6601,1.6391,1
2.6305,1.7793,1.6585,1.6383,1
2.6305,1.7801,1.6609,1.6399,1
2.6305,1.7745,1.6633,1.6432,1
2.6777,1.7801,1.6560,1.6399,1
2.6777,1.7745,1.6560,1.6391,1
2.6777,1.7761,1.6593,1.6440,1
2.6777,1.7785,1.6665,1.6560,1
2.6777,1.7713,1.6697,1.6552,1
2.6777,1.7769,1.6689,1.6585,1
2.6777,1.7793,1.6697,1.6552,1
2.6777,1.7753,1.6705,1.6585,1
2.6777,1.7721,1.6689,1.6794,1
2.6777,1.7705,1.6641,1.6705,1
2.6777,1.7584,1.6673,1.6689,1
2.6777,1.7640,1.6641,1.6705,1
2.6777,1.7640,1.6617,1.6528,1
2.6777,1.7624,1.6617,1.6415,1
2.6777,1.7640,1.6617,1.6488,1
2.6777,1.7576,1.6681,1.6504,1
2.6777,1.7576,1.6722,1.6512,1
2.6777,1.7640,1.6818,1.6488,1
2.6783,1.7681,1.6826,1.6335,1
2.6783,1.7697,1.6826,1.6464,1
2.6783,1.7753,1.6770,1.6512,1
2.6783,1.7777,1.6778,1.6520,1
2.6783,1.7753,1.6939,1.6681,1
2.6783,1.7761,1.6963,1.6681,1
2.6783,1.7737,1.6963,1.6593,1
2.6783,1.7761,1.6939,1.6568,1
2.6783,1.7810,1.6923,1.6512,1
2.6783,1.7753,1.6851,1.6552,1
2.6783,1.7745,1.6794,1.6601,1
2.6783,1.7793,1.6722,1.6488,1
2.6783,1.7818,1.6754,1.6480,1
2.6783,1.7785,1.6778,1.6456,1
2.6783,1.7810,1.6641,1.6407,1
2.6783,1.7810,1.6625,1.6456,1
2.6783,1.7842,1.6593,1.6480,1
2.6783,1.7914,1.6601,1.6496,1
2.6783,1.7874,1.6593,1.6496,1
2.6783,1.7955,1.6560,1.6552,1
2.6783,1.7858,1.6609,1.6512,1
2.6783,1.7801,1.6649,1.6480,1
2.6783,1.7834,1.6657,1.6149,1
2.6783,1.7987,1.6681,1.6206,1
2.6783,1.7963,1.6705,1.6295,1
2.6783,1.7938,1.6778,1.6278,1
2.6783,1.7987,1.6834,1.6254,1
2.6783,1.7890,1.6810,1.6246,1
2.6783,1.7938,1.6778,1.6335,1
2.6783,1.7866,1.6714,1.6295,1
2.6783,1.7922,1.6593,1.6278,1
2.6783,1.7930,1.6528,1.6311,1
2.6783,1.7882,1.6512,1.6657,1
2.6783,1.7777,1.6577,1.6617,1
2.6783,1.7810,1.6601,1.6544,1
2.6783,1.7858,1.6560,1.6496,1
2.6783,1.7866,1.6544,1.6496,1
2.6783,1.7882,1.6520,1.6504,1
2.6783,1.7890,1.6552,1.6448,1
2.6783,1.7938,1.6609,1.6423,1
2.6783,1.7963,1.6722,1.6383,1
2.6783,1.7938,1.6794,1.6359,1
2.6783,1.7947,1.6794,1.6303,1
2.6783,1.7938,1.6689,1.6359,1
2.6783,1.7898,1.6649,1.6423,1
2.6783,1.7898,1.6609,1.6415,1
2.6783,1.7882,1.6577,1.6399,1
2.6783,1.7052,1.6544,1.6415,1
2.6783,1.7084,1.6520,1.6488,1
2.6783,1.7133,1.6496,1.6528,1
2.6783,1.7221,1.6512,1.6568,1
2.6783,1.7318,1.6520,1.6577,1
2.6783,1.7334,1.6560,1.6609,1
2.6783,1.7382,1.6601,1.6568,1
2.6783,1.7399,1.6657,1.6504,1
2.6783,1.7390,1.6633,1.6472,1
2.6783,1.7350,1.6585,1.6496,1
2.6783,1.8172,1.6512,1.6577,1
2.6783,1.8116,1.6560,1.6536,1
2.6783,1.7987,1.6625,1.6423,1
2.6783,1.7866,1.6665,1.6520,1
2.6783,1.7769,1.6617,1.6544,1
2.6783,1.7697,1.6625,1.6568,1
2.6783,1.7592,1.6609,1.6577,1
2.6783,1.7536,1.6512,1.6617,1
2.6783,1.7471,1.6496,1.6665,1
2.6783,1.7447,1.6641,1.6657,1
2.6783,1.7302,1.6786,1.6609,1
2.6783,1.7253,1.6802,1.6665,1
2.6783,1.7278,1.6730,1.6730,1
2.6783,1.7310,1.6633,1.6633,1
2.6783,1.7310,1.6585,1.6617,1
2.6783,1.7366,1.6512,1.6609,1
2.6783,1.7382,1.6512,1.6625,1
2.6783,1.7431,1.6448,1.6568,1
2.6783,1.7399,1.6536,1.6520,1
2.6783,1.7431,1.6480,1.6601,1
2.7255,1.7463,1.6472,1.6641,1
2.7255,1.7536,1.6496,1.6552,1
2.7255,1.7592,1.6528,1.6577,1
2.7255,1.7624,1.6552,1.6496,1
2.7255,1.7664,1.6689,1.6504,1
2.7255,1.7673,1.6705,1.6560,1
2.7255,1.7689,1.6649,1.6601,1
2.7255,1.7761,1.6681,1.6697,1
2.7255,1.7810,1.6649,1.6778,1
2.7255,1.7818,1.6649,1.6665,1
2.7255,1.7890,1.6673,1.6641,1
2.7255,1.7850,1.6617,1.6665,1
2.7255,1.7826,1.6625,1.6601,1
2.7255,1.7761,1.6585,1.6673,1
2.7255,1.7681,1.6512,1.6730,1
2.7255,1.7656,1.6488,1.6657,1
2.7255,1.7664,1.6552,1.6560,1
2.7255,1.7584,1.6617,1.6488,1
2.7255,1.7592,1.6657,1.6464,1
2.7255,1.7608,1.6689,1.6536,1
2.7255,1.7632,1.6633,1.6504,1
2.7255,1.7608,1.6496,1.6520,1
2.7255,1.7624,1.6456,1.6585,1
2.7255,1.7656,1.6480,1.6617,1
2.7255,1.7689,1.6520,1.6625,1
2.7255,1.7632,1.6585,1.6762,1
2.7255,1.7600,1.6649,1.6762,1
2.7255,1.7640,1.6714,1.6762,1
2.7255,1.7632,1.6738,1.6802,1
2.7255,1.7592,1.6689,1.6883,1
2.7255,1.7584,1.6697,1.6851,1
2.7255,1.7592,1.6939,1.6834,1
2.7255,1.7544,1.6923,1.6802,1
2.7255,1.7592,1.6931,1.6697,1
2.7255,1.7616,1.6859,1.6649,1
2.7255,1.7189,1.6802,1.6512,1
2.7255,1.7270,1.6730,1.6544,1
2.7255,1.7245,1.6705,1.6560,1
2.7255,1.7262,1.6633,1.6633,1
2.7255,1.7334,1.6568,1.6544,1
2.7255,1.7334,1.6560,1.6601,1
2.7255,1.7310,1.6472,1.6560,1
2.7255,1.7302,1.6512,1.6552,1
2.7255,1.7286,1.6520,1.6714,1
2.7255,1.7253,1.6641,1.6681,1
2.7255,1.7721,1.6681,1.6673,1
2.7255,1.7616,1.6762,1.6681,1
2.7255,1.7600,1.6746,1.6665,1
2.7255,1.7552,1.6746,1.6536,1
2.7255,1.7544,1.6770,1.6528,1
2.7255,1.7544,1.6851,1.6472,1
2.7255,1.7463,1.6818,1.6512,1
2.7255,1.7447,1.6834,1.6544,1
2.7255,1.7390,1.6826,1.6536,1
2.7255,1.7366,1.6794,1.6544,1
2.7255,1.7399,1.6810,1.6504,1
2.7255,1.7399,1.6714,1.6504,1
2.7255,1.7390,1.6673,1.6488,1
2.7255,1.7399,1.6681,1.6488,1
2.7255,1.7318,1.6705,1.6512,1
2.7255,1.7278,1.6593,1.6496,1
2.7255,1.7334,1.6528,1.6528,1
2.7255,1.7366,1.6504,1.6528,1
2.7255,1.7366,1.6544,1.6472,1
2.7255,1.7390,1.6512,1.6488,1
2.7255,1.7318,1.6512,1.6504,1
2.7255,1.7390,1.6536,1.6464,1
2.7255,1.7399,1.6520,1.6504,1
2.7255,1.6915,1.6512,1.6544,1
2.7255,1.6996,1.6520,1.6520,1
2.7255,1.7068,1.6577,1.6512,1
2.7255,1.7141,1.6697,1.6560,1
2.7255,1.7052,1.6770,1.6625,1
2.7255,1.7100,1.6786,1.6649,1
2.7255,1.7245,1.6794,1.6536,1
2.7255,1.7310,1.6689,1.6560,1
2.7255,1.7237,1.6577,1.6601,1
2.7255,1.6754,1.6560,1.6577,1
2.7255,1.7302,1.6552,1.6528,1
2.7255,1.7310,1.6544,1.6528,1
2.7262,1.7399,1.6520,1.6536,1
2.7262,1.7358,1.6520,1.6520,1
2.7262,1.7439,1.6528,1.6464,1
2.7262,1.7382,1.6480,1.6496,1
2.7262,1.7237,1.6488,1.6528,1
2.7262,1.7181,1.6560,1.6496,1
2.7262,1.7165,1.6641,1.6448,1
2.7262,1.7673,1.6681,1.6488,1
2.7262,1.7568,1.6681,1.6448,1
2.7262,1.7423,1.6681,1.6415,1
2.7262,1.7237,1.6714,1.6423,1
2.7262,1.7133,1.6689,1.6359,1
2.7262,1.7108,1.6649,1.6391,1
2.7262,1.7229,1.6585,1.6399,1
2.7656,1.7181,1.6560,1.5867,1
2.7656,1.7181,1.6560,1.5867,1
2.7656,1.7165,1.6593,1.5924,1
2.7656,1.7108,1.6585,1.6029,1
2.7656,1.7157,1.6665,1.6125,1
2.7656,1.7221,1.6681,1.6141,1
2.7656,1.7253,1.6689,1.6158,1
2.7656,1.7350,1.6697,1.6198,1
2.7656,1.7294,1.6681,1.6174,1
2.7656,1.7189,1.6625,1.6166,1
2.7656,1.7229,1.6528,1.6697,1
2.7656,1.7382,1.6520,1.6609,1
2.7656,1.7439,1.6528,1.6577,1
2.7656,1.7495,1.6577,1.6472,1
2.7656,1.7495,1.6544,1.6327,1
2.7656,1.7527,1.6601,1.6311,1
2.7656,1.7552,1.6577,1.6254,1
2.7656,1.7544,1.6560,1.6214,1
2.7656,1.7632,1.6552,1.6125,1
2.7656,1.7664,1.6689,1.5972,1
2.7656,1.7656,1.6842,1.5948,1
2.7656,1.7536,1.6834,1.6085,1
2.7656,1.7471,1.6826,1.6182,1
2.7656,1.7447,1.6770,1.6125,1
2.7656,1.7439,1.6722,1.6190,1
2.7656,1.7334,1.6641,1.6166,1
2.7656,1.7326,1.6625,1.6246,1
2.7656,1.7374,1.6625,1.6270,1
2.7656,1.7366,1.6593,1.6319,1
2.7656,1.7286,1.6657,1.6367,1
2.7656,1.7270,1.6512,1.6399,1
2.7656,1.7326,1.6520,1.6415,1
2.7656,1.7350,1.6536,1.6440,1
2.7656,1.7342,1.6577,1.6520,1
2.7656,1.7374,1.6593,1.6488,1
2.7656,1.7447,1.6601,1.6552,1
2.7656,1.7350,1.6585,1.6520,1
2.7656,1.7302,1.6593,1.6520,1
2.7656,1.7294,1.6625,1.6544,1
2.7656,1.7342,1.6536,1.6520,1
2.7656,1.7350,1.6681,1.6303,1
2.7656,1.7310,1.6722,1.6335,1
2.7656,1.7302,1.6705,1.6182,1
2.7656,1.7560,1.6673,1.6133,1
2.7656,1.7495,1.6681,1.6222,1
2.7656,1.7471,1.6641,1.6238,1
2.7656,1.7552,1.6689,1.6311,1
2.7656,1.7536,1.6705,1.6286,1
2.7656,1.7519,1.6705,1.6270,1
2.7656,1.7495,1.6665,1.6375,1
2.7656,1.7487,1.6762,1.6641,1
2.7656,1.7495,1.6689,1.6585,1
2.7656,1.7527,1.6697,1.6641,1
2.7656,1.7221,1.6657,1.6625,1
2.7656,1.7286,1.6552,1.6544,1
2.7656,1.7366,1.6504,1.6488,1
2.7656,1.7390,1.6512,1.6399,1
2.7656,1.7399,1.6536,1.6407,1
2.7656,1.7423,1.6593,1.6423,1
2.7656,1.7479,1.6649,1.5819,1
2.7656,1.7544,1.6528,1.5859,1
2.7656,1.7479,1.6560,1.5900,1
2.7656,1.7479,1.6552,1.5940,1
2.7656,1.7560,1.6472,1.5948,1
2.7656,1.7487,1.6528,1.5996,1
2.7656,1.7463,1.6633,1.6166,1
2.7656,1.7447,1.6625,1.6182,1
2.7656,1.7487,1.6625,1.6166,1
2.7656,1.7455,1.6601,1.6166,1
2.7656,1.7447,1.6552,1.6673,1
2.7656,1.7374,1.6504,1.6673,1
2.7656,1.7447,1.6504,1.6649,1
2.7656,1.7423,1.6464,1.6577,1
2.7656,1.7382,1.6585,1.6552,1
2.7656,1.7374,1.6649,1.6609,1
2.7656,1.7197,1.6673,1.6423,1
2.7656,1.7205,1.6657,1.6383,1
2.7656,1.7173,1.6617,1.6407,1
2.7656,1.7213,1.6609,1.6464,1
2.7656,1.7237,1.6577,1.6512,1
2.7656,1.7253,1.6560,1.6464,1
2.7656,1.7221,1.6520,1.6415,1
2.7656,1.7229,1.6536,1.6407,1
2.7656,1.7245,1.6536,1.6440,1
2.7656,1.7302,1.6568,1.6383,1
2.7656,1.7447,1.6560,1.6488,1
2.7656,1.7463,1.6552,1.6504,1
2.7656,1.7471,1.6552,1.6528,1
2.7656,1.7310,1.6520,1.6488,1
2.7656,1.7245,1.6448,1.6536,1
2.7656,1.7237,1.6464,1.6544,1
2.7656,1.7286,1.6472,1.6593,1
2.7656,1.7286,1.6504,1.6641,1
2.7656,1.7278,1.6560,1.6689,1
2.7656,1.7318,1.6528,1.6697,1
2.7656,1.7318,1.6536,1.6617,1
2.7656,1.7318,1.6536,1.6633,1
2.7656,1.7229,1.6536,1.6577,1
2.7656,1.7334,1.6528,1.6585,1
2.7656,1.7358,1.6633,1.6633,1
2.7656,1.7382,1.6754,1.6681,1
2.7656,1.7407,1.6802,1.6665,1
2.7656,1.7399,1.6810,1.6464,1
2.7656,1.7382,1.6786,1.6415,1
2.7656,1.7334,1.6705,1.6423,1
2.7656,1.7326,1.6609,1.6552,1
2.8139,1.7366,1.6536,1.6488,1
2.8139,1.7471,1.6504,1.6456,1
2.8139,1.7487,1.6512,1.6472,1
2.8139,1.7568,1.6552,1.6464,1
2.8139,1.7600,1.6456,1.6415,1
2.8139,1.7616,1.6488,1.6689,1
2.8139,1.7608,1.6480,1.6842,1
2.8139,1.7608,1.6464,1.6802,1
2.8139,1.7648,1.6512,1.6818,1
2.8139,1.7697,1.6512,1.6665,1
2.8139,1.7648,1.6577,1.6673,1
2.8139,1.7608,1.6568,1.6714,1
2.8139,1.7648,1.6480,1.6746,1
2.8139,1.7552,1.6472,1.6649,1
2.8139,1.7527,1.6528,1.6601,1
2.8139,1.7463,1.6512,1.6343,1
2.8139,1.7447,1.6488,1.6399,1
2.8139,1.7503,1.6480,1.6593,1
2.8139,1.7463,1.6472,1.6552,1
2.8139,1.7439,1.6512,1.6544,1
2.8139,1.7495,1.6488,1.6568,1
2.8139,1.7560,1.6504,1.6601,1
2.8139,1.7527,1.6593,1.6625,1
2.8139,1.7560,1.6649,1.6601,1
2.8139,1.7576,1.6641,1.6641,1
2.8139,1.7576,1.6577,1.6617,1
2.8139,1.7616,1.6536,1.6681,1
2.8139,1.7576,1.6496,1.6415,1
2.8147,1.7656,1.6488,1.6472,1
2.8147,1.7681,1.6480,1.6520,1
2.8147,1.7608,1.6448,1.6552,1
2.8147,1.7560,1.6456,1.6568,1
2.8147,1.7584,1.6512,1.6496,1
2.8147,1.7552,1.6488,1.6512,1
2.8147,1.7511,1.6472,1.6528,1
2.8147,1.7415,1.6528,1.6544,1
2.8147,1.7455,1.6351,1.6480,1
2.8147,1.7463,1.6399,1.6568,1
2.8147,1.7399,1.6423,1.6552,1
2.8147,1.7447,1.6423,1.6520,1
2.8147,1.7463,1.6440,1.7076,1
2.8147,1.7447,1.6423,1.6988,1
2.8147,1.7455,1.6456,1.6996,1
2.8147,1.7479,1.6448,1.6939,1
2.8147,1.7487,1.6472,1.6826,1
2.8147,1.7616,1.6432,1.6794,1
2.8147,1.7600,1.6641,1.6826,1
2.8147,1.7584,1.6625,1.6794,1
2.8147,1.7600,1.6601,1.6714,1
2.8147,1.7536,1.6593,1.6714,1
2.8147,1.7544,1.6665,1.6214,1
2.8147,1.7576,1.6738,1.6367,1
2.8147,1.7576,1.6641,1.6351,1
2.8147,1.7519,1.6528,1.6432,1
2.8147,1.7544,1.6391,1.6520,1
2.8147,1.7536,1.6383,1.6593,1
2.8147,1.7511,1.6359,1.6738,1
2.8147,1.7519,1.6367,1.6770,1
2.8147,1.7511,1.6391,1.6786,1
2.8147,1.7552,1.6456,1.6818,1
2.8147,1.7527,1.6472,1.7189,1
2.8147,1.7495,1.6456,1.7245,1
2.8147,1.7495,1.6504,1.7213,1
2.8147,1.7568,1.6520,1.7149,1
2.8147,1.7544,1.6649,1.7165,1
2.8147,1.7568,1.6568,1.7060,1
2.8147,1.7600,1.6577,1.6883,1
2.8147,1.7632,1.6536,1.6891,1
2.8147,1.7640,1.6528,1.6778,1
2.8147,1.7608,1.6585,1.6802,1
2.8147,1.7592,1.6568,1.6407,1
2.8147,1.7640,1.6544,1.6351,1
2.8640,1.7656,1.6488,1.6383,1
2.8640,1.7640,1.6520,1.6456,1
2.8640,1.7608,1.6472,1.6472,1
2.8640,1.7673,1.6552,1.6689,1
2.8640,1.7664,1.6593,1.6673,1
2.8640,1.7673,1.6633,1.6697,1
2.8640,1.7664,1.6730,1.6859,1
2.8640,1.7664,1.6681,1.6834,1
2.8640,1.7705,1.6625,1.6794,1
2.8640,1.7648,1.6520,1.6697,1
2.8640,1.7640,1.6504,1.6705,1
2.8640,1.7600,1.6528,1.6689,1
2.8640,1.7624,1.6464,1.6649,1
2.8640,1.7560,1.6464,1.6504,1
2.8640,1.7576,1.6504,1.6504,1
2.8640,1.7536,1.6568,1.6440,1
2.8640,1.7423,1.6496,1.6399,1
2.8640,1.7455,1.6472,1.6432,1
2.8640,1.7439,1.6488,1.6488,1
2.8640,1.7455,1.6633,1.6480,1
2.8640,1.7423,1.6665,1.6472,1
2.8640,1.7471,1.6673,1.6464,1
2.8640,1.7519,1.6705,1.6488,1
2.8640,1.7503,1.6673,1.6472,1
2.8640,1.7439,1.6657,1.6488,1
2.8640,1.7463,1.6593,1.6488,1
2.8640,1.7592,1.6536,1.6520,1
2.8640,1.7560,1.6528,1.6472,1
2.8640,1.7624,1.6496,1.6407,1
2.8640,1.7640,1.6464,1.6407,1
2.8640,1.7648,1.6464,1.6383,1
2.8640,1.7624,1.6423,1.6359,1
2.8640,1.7584,1.6512,1.6351,1
2.8640,1.7552,1.6585,1.6375,1
2.8640,1.7608,1.6601,1.6335,1
2.8640,1.7560,1.6577,1.6343,1
2.8647,1.7527,1.6577,1.6351,1
2.8647,1.7495,1.6480,1.6383,1
2.8647,1.7455,1.6415,1.6415,1
2.8647,1.7471,1.6399,1.6423,1
2.8647,1.7463,1.6415,1.6415,1
2.8647,1.7431,1.6464,1.6456,1
2.8647,1.7479,1.6464,1.6528,1
2.8647,1.7511,1.6488,1.6512,1
2.8647,1.7487,1.6504,1.6528,1
2.8647,1.7527,1.6488,1.6544,1
2.8647,1.7552,1.6536,1.6496,1
2.8647,1.7584,1.6697,1.6480,1
2.8647,1.7874,1.6738,1.6456,1
2.8647,1.7858,1.6689,1.6440,1
2.8647,1.7850,1.6617,1.6440,1
2.8647,1.7858,1.6544,1.6432,1
2.8647,1.7793,1.6528,1.6415,1
2.8647,1.7826,1.6552,1.6423,1
2.8647,1.7826,1.6295,1.6383,1
2.8647,1.7721,1.6319,1.6407,1
2.8647,1.7705,1.6303,1.6440,1
2.8647,1.7745,1.6238,1.6448,1
2.8647,1.7463,1.6125,1.6423,1
2.8647,1.7455,1.6230,1.6391,1
2.8647,1.7503,1.6351,1.6375,1
2.8647,1.7318,1.6480,1.6391,1
2.8647,1.7390,1.6472,1.6399,1
2.8647,1.7342,1.6415,1.6480,1
2.8647,1.7358,1.6577,1.6552,1
2.8647,1.7616,1.6520,1.6528,1
2.8647,1.7640,1.6472,1.6552,1
2.8647,1.7600,1.6496,1.6585,1
2.8647,1.7576,1.6673,1.6609,1
2.8647,1.7632,1.6689,1.6577,1
2.8647,1.7616,1.6593,1.6641,1
2.8647,1.7793,1.6512,1.6609,1
2.8647,1.7721,1.6496,1.6568,1
2.8647,1.7745,1.6480,1.6440,1
2.8647,1.7705,1.6536,1.6359,1
2.8647,1.7519,1.6568,1.6383,1
2.8647,1.7471,1.6617,1.6399,1
2.8647,1.7471,1.6585,1.6432,1
2.8647,1.7455,1.6593,1.6432,1
2.8647,1.7439,1.6552,1.6528,1
2.8647,1.7382,1.6568,1.6552,1
2.8647,1.7415,1.6577,1.6568,1
2.8647,1.7431,1.6577,1.6568,1
2.8647,1.7399,1.6593,1.6568,1
2.8647,1.7366,1.6560,1.6625,1
2.8647,1.7415,1.6577,1.6609,1
2.8647,1.7455,1.6560,1.6657,1
2.8647,1.7423,1.6617,1.6504,1
2.8647,1.7439,1.6625,1.6488,1
2.8647,1.7423,1.6625,1.6464,1
2.8647,1.7423,1.6536,1.6464,1
2.8647,1.7423,1.6440,1.6399,1
2.8647,1.7423,1.6456,1.6367,1
2.8647,1.7463,1.6456,1.6351,1
2.8647,1.7471,1.6496,1.6367,1
2.8647,1.7423,1.6552,1.6391,1
2.8647,1.7415,1.6625,1.6335,1
2.8647,1.7463,1.6617,1.6359,1
2.8647,1.7479,1.6609,1.6359,1
2.8647,1.7447,1.6585,1.6383,1
2.9140,1.7455,1.6705,1.6351,1
2.9140,1.7503,1.6786,1.6375,1
2.9140,1.7495,1.6738,1.6375,1
2.9140,1.7463,1.6722,1.6440,1
2.9140,1.7536,1.6617,1.6440,1
2.9140,1.7552,1.6552,1.6399,1
2.9140,1.7544,1.6496,1.6432,1
2.9140,1.7519,1.6472,1.6464,1
2.9140,1.7511,1.6456,1.6423,1
2.9140,1.8156,1.6448,1.6367,1
2.9147,1.8108,1.6399,1.6432,1
2.9147,1.7955,1.6407,1.6464,1
2.9147,1.7890,1.6512,1.6423,1
2.9147,1.7769,1.6528,1.6383,1
2.9147,1.7648,1.6625,1.6383,1
2.9147,1.7503,1.6649,1.6432,1
2.9147,1.7487,1.6657,1.6053,1
2.9147,1.7503,1.6633,1.6069,1
2.9147,1.7568,1.6585,1.6133,1
2.9147,1.6923,1.6552,1.6190,1
2.9147,1.7028,1.6552,1.6109,1
2.9147,1.7149,1.6552,1.6133,1
2.9147,1.7237,1.6907,1.6149,1
2.9147,1.7374,1.6907,1.6206,1
2.9147,1.7487,1.6867,1.6222,1
2.9147,1.7648,1.6851,1.6198,1
2.9147,1.7632,1.6826,1.6464,1
2.9147,1.7608,1.6923,1.6440,1
2.9147,1.7536,1.6907,1.6432,1
2.9147,1.7568,1.6842,1.6415,1
2.9147,1.7576,1.6899,1.6560,1
2.9147,1.7519,1.6955,1.6520,1
2.9147,1.7471,1.6488,1.6496,1
2.9147,1.7463,1.6528,1.6448,1
2.9147,1.7455,1.6552,1.6568,1
2.9147,1.7536,1.6544,1.6496,1
2.9147,1.7519,1.6552,1.6496,1
2.9147,1.7527,1.6472,1.6496,1
2.9147,1.7479,1.6544,1.6568,1
2.9147,1.7350,1.6689,1.6697,1
2.9147,1.7302,1.6746,1.6544,1
2.9147,1.7294,1.6754,1.6472,1
2.9147,1.7213,1.6939,1.6464,1
2.9147,1.7181,1.6851,1.6456,1
2.9147,1.7189,1.6818,1.6319,1
2.9147,1.7092,1.6802,1.6407,1
2.9147,1.7157,1.6722,1.6423,1
2.9147,1.7149,1.6714,1.6544,1
2.9147,1.7213,1.6714,1.6488,1
2.9147,1.7342,1.6714,1.6375,1
2.9147,1.7318,1.6617,1.6407,1
2.9147,1.7390,1.6577,1.6512,1
2.9147,1.7503,1.6488,1.6577,1
2.9147,1.7536,1.6496,1.6560,1
2.9147,1.7511,1.6520,1.6536,1
2.9147,1.7511,1.6472,1.6504,1
2.9147,1.7471,1.6601,1.6552,1
2.9147,1.7447,1.6617,1.6488,1
2.9147,1.7399,1.6625,1.6512,1
2.9147,1.7399,1.6617,1.6528,1
2.9147,1.7431,1.6585,1.6504,1
2.9147,1.7382,1.6174,1.6472,1
2.9147,1.7326,1.6166,1.6440,1
2.9147,1.7318,1.6230,1.6512,1
2.9147,1.7286,1.6190,1.6472,1
2.9147,1.7262,1.6262,1.6464,1
2.9147,1.7270,1.6222,1.6423,1
2.9147,1.7342,1.6230,1.6375,1
2.9147,1.7439,1.6286,1.6327,1
2.9147,1.7366,1.6278,1.6295,1
2.9147,1.7358,1.6351,1.6270,1
2.9147,1.7366,1.6738,1.6238,1
2.9147,1.7407,1.6649,1.5658,1
2.9147,1.7415,1.6512,1.5706,1
2.9147,1.7439,1.6681,1.5827,1
2.9147,1.7503,1.6609,1.5867,1
2.9147,1.7511,1.6617,1.5900,1
2.9147,1.7407,1.6625,1.5924,1
2.9147,1.7350,1.6536,1.5956,1
2.9147,1.7439,1.6520,1.5956,1
2.9147,1.7399,1.6512,1.5859,1
2.9147,1.7294,1.6480,1.5892,1
2.9147,1.7326,1.6488,1.6504,1
2.9147,1.7334,1.6560,1.6423,1
2.9147,1.7318,1.6440,1.6351,1
2.9147,1.7310,1.6456,1.6311,1
2.9154,1.7318,1.6407,1.6278,1
2.9154,1.7374,1.6391,1.6246,1
2.9154,1.7358,1.6375,1.6472,1
2.9154,1.7302,1.6391,1.6383,1
2.9154,1.7334,1.6391,1.6415,1
2.9154,1.7681,1.6423,1.6480,1
2.9154,1.7640,1.6488,1.6359,1
2.9154,1.7624,1.6504,1.6303,1
2.9154,1.7600,1.6520,1.6246,1
2.9154,1.7560,1.6625,1.6182,1
2.9154,1.7407,1.6681,1.6238,1
2.9154,1.7415,1.6714,1.6214,1
2.9154,1.7407,1.6778,1.5980,1
2.9154,1.7237,1.6754,1.5988,1
2.9637,1.7431,1.6641,1.6109,1
2.9637,1.7197,1.6585,1.6141,1
2.9637,1.7205,1.6520,1.6335,1
2.9637,1.7237,1.6544,1.6391,1
2.9637,1.7278,1.6544,1.6166,1
2.9637,1.7294,1.6528,1.6295,1
2.9637,1.7471,1.6504,1.6311,1
2.9637,1.7552,1.6464,1.6464,1
2.9637,1.7576,1.6407,1.6448,1
2.9637,1.7624,1.6407,1.6520,1
2.9637,1.7479,1.6528,1.6528,1
2.9637,1.7390,1.6609,1.6351,1
2.9637,1.7431,1.6714,1.6246,1
2.9637,1.7431,1.6689,1.6343,1
2.9637,1.7447,1.6432,1.6609,1
2.9637,1.7463,1.6560,1.6552,1
2.9637,1.7439,1.6552,1.6520,1
2.9637,1.7358,1.6528,1.6520,1
2.9637,1.7382,1.6536,1.6520,1
2.9637,1.7681,1.6528,1.6448,1
2.9637,1.7624,1.6512,1.6351,1
2.9637,1.7689,1.6520,1.6585,1
2.9637,1.7664,1.6528,1.6601,1
2.9637,1.7624,1.6593,1.6504,1
2.9637,1.7592,1.6842,1.6415,1
2.9637,1.7560,1.6633,1.6359,1
2.9637,1.7503,1.6641,1.6182,1
2.9637,1.7447,1.6617,1.6101,1
2.9637,1.7447,1.6585,1.6069,1
2.9637,1.7302,1.6625,1.6141,1
2.9637,1.7294,1.6568,1.6238,1
2.9637,1.7326,1.6560,1.6109,1
2.9637,1.7278,1.6552,1.6117,1
2.9637,1.7326,1.6544,1.6166,1
2.9637,1.7366,1.6512,1.6278,1
2.9637,1.7399,1.6577,1.6311,1
2.9637,1.7447,1.6568,1.6480,1
2.9637,1.7471,1.6625,1.6472,1
2.9637,1.7479,1.6673,1.6512,1
2.9637,1.7495,1.6609,1.6512,1
2.9637,1.7503,1.6673,1.6512,1
2.9637,1.7527,1.6633,1.6512,1
2.9637,1.7810,1.6560,1.6456,1
2.9637,1.7777,1.6536,1.6399,1
2.9637,1.7713,1.6536,1.6423,1
2.9637,1.7673,1.6520,1.6448,1
2.9637,1.7664,1.6496,1.6464,1
2.9637,1.7705,1.6464,1.6472,1
2.9637,1.7664,1.6440,1.6464,1
2.9637,1.7656,1.6512,1.6448,1
2.9637,1.7673,1.6560,1.6391,1
2.9637,1.7648,1.6665,1.6407,1
2.9637,1.7382,1.6705,1.6415,1
2.9637,1.7399,1.6657,1.6383,1
2.9637,1.7423,1.6625,1.6343,1
2.9637,1.7423,1.6568,1.6327,1
2.9637,1.7431,1.6552,1.6303,1
2.9637,1.7439,1.6577,1.6295,1
2.9637,1.7463,1.6593,1.6254,1
2.9637,1.7471,1.6593,1.5867,1
2.9637,1.7455,1.6560,1.5956,1
2.9637,1.7399,1.6472,1.6101,1
2.9637,1.7447,1.6464,1.6182,1
2.9637,1.7439,1.6480,1.6198,1
2.9637,1.7439,1.6504,1.6238,1
2.9637,1.7487,1.6536,1.6504,1
2.9637,1.7511,1.6601,1.6448,1
2.9637,1.7511,1.6601,1.6415,1
2.9637,1.7463,1.6633,1.6367,1
2.9637,1.7447,1.6625,1.6746,1
2.9637,1.7439,1.6577,1.6689,1
2.9637,1.7463,1.6528,1.6528,1
2.9637,1.7390,1.6512,1.6432,1
2.9637,1.7334,1.6504,1.6423,1
2.9637,1.7318,1.6512,1.6391,1
2.9637,1.7310,1.6560,1.6190,1
2.9637,1.7262,1.6552,1.6254,1
2.9637,1.7270,1.6593,1.6246,1
2.9637,1.7302,1.6577,1.6319,1
2.9637,1.7310,1.6593,1.6278,1
2.9637,1.7366,1.6617,1.6303,1
2.9637,1.7382,1.6536,1.6311,1
2.9637,1.7407,1.6456,1.6343,1
2.9637,1.7439,1.6407,1.6399,1
2.9637,1.7455,1.6367,1.6585,1
2.9637,1.7431,1.6270,1.6480,1
2.9637,1.7334,1.6311,1.6448,1
2.9637,1.7302,1.6327,1.6472,1
2.9637,1.7278,1.6327,1.6496,1
2.9637,1.7213,1.6295,1.6560,1
2.9637,1.7197,1.6254,1.6568,1
2.9637,1.7173,1.6375,1.6585,1
2.9637,1.7205,1.6472,1.6552,1
2.9637,1.7205,1.6641,1.6560,1
2.9637,1.7060,1.6689,1.6423,1
2.9637,1.7068,1.6794,1.6520,1
2.9637,1.7205,1.6681,1.6560,1
2.9637,1.7237,1.6593,1.6536,1
2.9637,1.7141,1.6520,1.6536,1
2.9637,1.7165,1.6496,1.6480,1
3.0147,1.7157,1.6536,1.6480,1
3.0147,1.7237,1.6520,1.6456,1
3.0147,1.7237,1.6520,1.6488,1
3.0147,1.7253,1.6504,1.6480,1
3.0147,1.7342,1.6480,1.6464,1
3.0147,1.7326,1.6472,1.6423,1
3.0147,1.7278,1.6512,1.6415,1
3.0147,1.7229,1.6504,1.6415,1
3.0147,1.7358,1.6512,1.6399,1
3.0147,1.7350,1.6480,1.6456,1
3.0147,1.7253,1.6399,1.6512,1
3.0147,1.7189,1.6440,1.6520,1
3.0147,1.7133,1.6488,1.6544,1
3.0147,1.7149,1.6448,1.6488,1
3.0147,1.7133,1.6472,1.6448,1
3.0147,1.7108,1.6456,1.6367,1
3.0147,1.7173,1.6456,1.6391,1
3.0147,1.7213,1.6488,1.6391,1
3.0147,1.7157,1.6544,1.6415,1
3.0147,1.7213,1.6617,1.6391,1
3.0147,1.7278,1.6730,1.6383,1
3.0147,1.7286,1.6802,1.6303,1
3.0147,1.7310,1.6786,1.6262,1
3.0147,1.7278,1.6778,1.6295,1
3.0147,1.7221,1.6697,1.6335,1
3.0147,1.7253,1.6681,1.6423,1
3.0147,1.7165,1.6705,1.6399,1
3.0147,1.7133,1.6705,1.6432,1
3.0147,1.7149,1.6673,1.6351,1
3.0147,1.7092,1.6673,1.6375,1
3.0147,1.7882,1.6697,1.6335,1
3.0147,1.7818,1.6609,1.6407,1
3.0147,1.7793,1.6512,1.6367,1
3.0147,1.7753,1.6496,1.6391,1
3.0147,1.7793,1.6560,1.6319,1
3.0147,1.7826,1.6577,1.6295,1
3.0147,1.7801,1.6536,1.6270,1
3.0147,1.7745,1.6520,1.6246,1
3.0147,1.7721,1.6399,1.6270,1
3.0147,1.7777,1.6480,1.6238,1
3.0147,1.6988,1.6432,1.6238,1
3.0147,1.7060,1.6432,1.6206,1
3.0147,1.7084,1.6520,1.6246,1
3.0147,1.7133,1.6512,1.6214,1
3.0147,1.7253,1.6448,1.6286,1
3.0147,1.7253,1.6480,1.6303,1
3.0147,1.7060,1.6552,1.6295,1
3.0147,1.7181,1.6641,1.6327,1
3.0147,1.7302,1.6818,1.6311,1
3.0147,1.7326,1.6802,1.6359,1
3.0147,1.7334,1.6714,1.6311,1
3.0147,1.7350,1.6601,1.6295,1
3.0147,1.7503,1.6536,1.6303,1
3.0147,1.7503,1.6496,1.6319,1
3.0151,1.7503,1.6544,1.6488,1
3.0151,1.7487,1.6528,1.6464,1
3.0151,1.7769,1.6528,1.6407,1
3.0151,1.7705,1.6472,1.6383,1
3.0151,1.7592,1.6432,1.6399,1
3.0151,1.7544,1.6367,1.6432,1
3.0151,1.7511,1.6448,1.6432,1
3.0151,1.7471,1.6528,1.6456,1
3.0151,1.7302,1.6568,1.6480,1
3.0151,1.7286,1.6568,1.6496,1
3.0151,1.7253,1.6512,1.6335,1
3.0151,1.7173,1.6504,1.6367,1
3.0151,1.7141,1.6383,1.6448,1
3.0151,1.7141,1.6399,1.6464,1
3.0151,1.7108,1.6399,1.6625,1
3.0151,1.7100,1.6359,1.6577,1
3.0151,1.7012,1.6319,1.6552,1
3.0151,1.7060,1.6335,1.6568,1
3.0151,1.7060,1.6367,1.6593,1
3.0151,1.7068,1.6432,1.6593,1
3.0253,1.7076,1.6536,1.6577,1
3.0253,1.7157,1.6609,1.6577,1
3.0253,1.7149,1.6697,1.6496,1
3.0253,1.7165,1.6673,1.6472,1
3.0253,1.7237,1.6609,1.6319,1
3.0253,1.7253,1.6625,1.6351,1
3.0253,1.7334,1.6641,1.6415,1
3.0253,1.7286,1.6641,1.6375,1
3.0253,1.7302,1.6585,1.6359,1
3.0253,1.7318,1.6585,1.6391,1
3.0253,1.7302,1.6536,1.6415,1
3.0253,1.7689,1.6448,1.6399,1
3.0253,1.7866,1.6432,1.6536,1
3.0253,1.7785,1.6383,1.6512,1
3.0253,1.7705,1.6399,1.6544,1
3.0253,1.7664,1.6432,1.6520,1
3.0253,1.7624,1.6488,1.6440,1
3.0253,1.7600,1.6528,1.6448,1
3.0253,1.7624,1.6528,1.6472,1
3.0253,1.7592,1.6609,1.6432,1
3.0253,1.7536,1.6577,1.6383,1
3.0253,1.7092,1.6601,1.6359,1
3.0253,1.6988,1.6593,1.6327,1
3.0253,1.7020,1.6641,1.6367,1
3.0253,1.7036,1.6689,1.6335,1
3.0253,1.7116,1.6681,1.6335,1
3.0253,1.7165,1.6681,1.6343,1
3.0485,1.7173,1.6689,1.6319,1
3.0485,1.7205,1.6746,1.6311,1
3.0485,1.7157,1.6641,1.6319,1
3.0485,1.6963,1.6665,1.6303,1
3.0485,1.7004,1.6552,1.6343,1
3.0485,1.6979,1.6488,1.6311,1
3.0485,1.7036,1.6407,1.6303,1
3.0485,1.7076,1.6415,1.6303,1
3.0485,1.7044,1.6480,1.6311,1
3.0485,1.7116,1.6456,1.6311,1
3.0485,1.7157,1.6448,1.6319,1
3.0485,1.7108,1.6432,1.6295,1
3.0485,1.7189,1.6415,1.6295,1
3.0485,1.6730,1.6440,1.6327,1
3.0485,1.6810,1.6544,1.6303,1
3.0485,1.6786,1.6593,1.6319,1
3.0485,1.6826,1.6714,1.6335,1
3.0485,1.6842,1.6714,1.6375,1
3.0485,1.6786,1.6657,1.6343,1
3.0485,1.6689,1.6577,1.6367,1
3.0485,1.6633,1.6512,1.6391,1
3.0485,1.6625,1.6504,1.6415,1
3.0485,1.6609,1.6512,1.6432,1
3.0485,1.7270,1.6464,1.6415,1
3.0485,1.7116,1.6440,1.6464,1
3.0485,1.7116,1.6520,1.6480,1
3.0485,1.6923,1.6496,1.6488,1
3.0485,1.6842,1.6504,1.6786,1
3.0485,1.6802,1.6504,1.6794,1
3.0485,1.6826,1.6560,1.6738,1
3.0485,1.6996,1.6577,1.6689,1
3.0485,1.6955,1.6472,1.6657,1
3.0485,1.6931,1.6472,1.6149,1
3.0485,1.6923,1.6504,1.6190,1
3.0485,1.6963,1.6560,1.6174,1
3.0485,1.6891,1.6552,1.6190,1
3.0485,1.6996,1.6544,1.6230,1
3.0485,1.7060,1.6504,1.5908,1
3.0485,1.7092,1.6480,1.5940,1
3.0485,1.7084,1.6440,1.6029,1
3.0485,1.6939,1.6681,1.6101,1
3.0485,1.7004,1.6786,1.6166,1
3.0485,1.6979,1.6818,1.6681,1
3.0485,1.6577,1.6883,1.6625,1
3.0485,1.6649,1.6867,1.6568,1
3.0485,1.6802,1.6778,1.6496,1
3.0485,1.6931,1.6697,1.6448,1
3.0485,1.6963,1.6649,1.6423,1
3.0485,1.7044,1.6641,1.6375,1
3.0485,1.7060,1.6657,1.6375,1
3.0485,1.7068,1.6448,1.6383,1
3.0485,1.7084,1.6496,1.6351,1
3.0485,1.7133,1.6641,1.6311,1
3.0485,1.7536,1.6593,1.6319,1
3.0485,1.7350,1.6577,1.6375,1
3.0485,1.7278,1.6649,1.6423,1
3.0485,1.7189,1.6786,1.6496,1
3.0485,1.7133,1.7133,1.6432,1
3.0485,1.7076,1.6996,1.6432,1
3.0485,1.7020,1.6955,1.6415,1
3.0485,1.7044,1.6923,1.6456,1
3.0485,1.6996,1.6754,1.6367,1
3.0485,1.6851,1.6609,1.6319,1
3.0485,1.6834,1.6609,1.6311,1
3.0485,1.6963,1.6593,1.6303,1
3.0485,1.6947,1.6496,1.6383,1
3.0485,1.6899,1.6399,1.6278,1
3.0485,1.6899,1.6053,1.6303,1
3.0485,1.6891,1.6335,1.6327,1
3.0485,1.6883,1.6440,1.6399,1
3.0485,1.6810,1.6488,1.6423,1
3.0485,1.6826,1.6657,1.6488,1
3.0485,1.6931,1.6593,1.6496,1
3.0485,1.6971,1.6512,1.6488,1
3.0485,1.7028,1.6488,1.6504,1
3.0485,1.7020,1.6528,1.6496,1
3.0485,1.7173,1.6560,1.6544,1
3.0485,1.7165,1.6649,1.6568,1
3.0485,1.7173,1.6560,1.6601,1
3.0485,1.7205,1.6560,1.6496,1
3.0485,1.8019,1.6536,1.6762,1
3.0485,1.7947,1.6423,1.6714,1
3.0970,1.7890,1.6343,1.6738,1
3.0970,1.7850,1.6085,1.6754,1
3.0970,1.7793,1.6093,1.7157,1
3.0970,1.7769,1.6158,1.7020,1
3.0970,1.7503,1.6166,1.6996,1
3.0970,1.7527,1.6125,1.7036,1
3.0970,1.7527,1.6077,1.6996,1
3.0970,1.7527,1.6077,1.7084,1
3.0970,1.6802,1.6125,1.6722,1
3.0970,1.6915,1.6270,1.6770,1
3.0970,1.7020,1.6359,1.6778,1
3.0970,1.7108,1.7012,1.6810,1
3.0970,1.7125,1.6963,1.6407,1
3.0970,1.7237,1.6891,1.6504,1
3.0970,1.7455,1.6907,1.6504,1
3.0970,1.7495,1.6907,1.6480,1
3.0970,1.7511,1.6971,1.6528,1
3.0970,1.7552,1.6794,1.6512,1
3.0970,1.7552,1.6609,1.6609,1
3.0970,1.7511,1.6464,1.6625,1
3.0970,1.7527,1.6560,1.6673,1
3.0970,1.7471,1.6206,1.6802,1
3.0981,1.7415,1.6311,1.6826,1
3.0981,1.7334,1.6190,1.6802,1
3.0981,1.7286,1.6182,1.6899,1
3.0981,1.7262,1.6222,1.6915,1
3.0981,1.7278,1.6166,1.6859,1
3.0981,1.7253,1.6319,1.6810,1
3.0981,1.7197,1.6351,1.6754,1
3.0981,1.7213,1.6440,1.6746,1
3.0981,1.7157,1.6367,1.6681,1
3.0981,1.7060,1.6440,1.6560,1
3.0981,1.7100,1.6415,1.6496,1
3.0981,1.7189,1.6633,1.6472,1
3.0981,1.7108,1.6649,1.6375,1
3.0981,1.7036,1.6633,1.6375,1
3.0981,1.6988,1.6633,1.6480,1
3.0981,1.6988,1.6609,1.6448,1
3.0981,1.7020,1.6689,1.6423,1
3.0981,1.6971,1.6681,1.6423,1
3.0981,1.6947,1.6722,1.6544,1
3.0981,1.7044,1.6673,1.6601,1
3.0981,1.6851,1.6681,1.6625,1
3.0981,1.6770,1.6568,1.6536,1
3.0981,1.6875,1.6480,1.6528,1
3.0981,1.6939,1.6367,1.6504,1
3.0981,1.6979,1.6295,1.6504,1
3.0981,1.6963,1.6262,1.6593,1
3.0981,1.6939,1.6270,1.6512,1
3.0981,1.7004,1.6295,1.6641,1
3.0981,1.7092,1.6262,1.6480,1
3.0981,1.7060,1.6246,1.6399,1
3.0981,1.7270,1.6174,1.6407,1
3.0981,1.7286,1.6174,1.6480,1
3.0981,1.7213,1.6117,1.6480,1
3.0981,1.7173,1.6206,1.6512,1
3.0981,1.7157,1.6311,1.6480,1
3.0981,1.7165,1.6327,1.6512,1
3.0981,1.7173,1.6407,1.6585,1
3.0981,1.7108,1.6270,1.6440,1
3.0981,1.7100,1.6230,1.6496,1
3.0981,1.7133,1.6206,1.6528,1
3.0981,1.7125,1.6254,1.6552,1
3.0981,1.7068,1.6303,1.6552,1
3.0981,1.7108,1.6335,1.6568,1
3.0981,1.7100,1.6391,1.6568,1
3.0981,1.7076,1.6359,1.6552,1
3.0981,1.7052,1.6440,1.6472,1
3.0981,1.7068,1.6601,1.6504,1
3.0981,1.7068,1.6705,1.6544,1
3.0981,1.7004,1.6730,1.6794,1
3.0981,1.6979,1.6730,1.6738,1
3.0981,1.6988,1.6665,1.6705,1
3.0981,1.7028,1.6593,1.6327,1
3.0981,1.7004,1.6625,1.6472,1
3.0981,1.7020,1.6577,1.6520,1
3.0981,1.7028,1.6593,1.6552,1
3.0981,1.7028,1.6593,1.6552,1
3.0981,1.7028,1.6351,1.6649,1
3.0981,1.7036,1.6335,1.6697,1
3.0981,1.7149,1.6359,1.6383,1
3.0981,1.7141,1.6367,1.6383,1
3.0981,1.7116,1.6448,1.6375,1
3.0989,1.7052,1.6601,1.6730,1
3.1469,1.7076,1.6681,1.6552,1
3.1469,1.7052,1.6697,1.6504,1
3.1469,1.7044,1.6681,1.6415,1
3.1469,1.7108,1.6585,1.6432,1
3.1469,1.7092,1.6601,1.6286,1
3.1469,1.6996,1.6609,1.6206,1
3.1469,1.6891,1.6577,1.6286,1
3.1469,1.6931,1.6649,1.6319,1
3.1469,1.6834,1.6681,1.6343,1
3.1469,1.6859,1.6641,1.6383,1
3.1469,1.6875,1.6657,1.6399,1
3.1469,1.6818,1.6657,1.6488,1
3.1469,1.6891,1.6649,1.6504,1
3.1469,1.6834,1.6738,1.6512,1
3.1469,1.6859,1.6738,1.5892,1
3.1469,1.6988,1.6738,1.5972,1
3.1469,1.7020,1.6714,1.6029,1
3.1469,1.6996,1.6665,1.6085,1
3.1469,1.7068,1.6714,1.6101,1
3.1469,1.7076,1.6697,1.6117,1
3.1469,1.7028,1.6649,1.6109,1
3.1469,1.7092,1.6633,1.6021,1
3.1469,1.7052,1.6593,1.6004,1
3.1469,1.7068,1.6528,1.6012,1
3.1469,1.7028,1.6560,1.6657,1
3.1469,1.6979,1.6568,1.6552,1
3.1469,1.6931,1.6673,1.6480,1
3.1469,1.6923,1.6738,1.6383,1
3.1469,1.6915,1.6681,1.6311,1
3.1469,1.6899,1.6544,1.6254,1
3.1469,1.6899,1.6520,1.6166,1
3.1469,1.6923,1.6488,1.6182,1
3.1480,1.6907,1.6520,1.6198,1
3.1480,1.6883,1.6528,1.6133,1
3.1480,1.6931,1.6496,1.6125,1
3.1480,1.6730,1.6520,1.6166,1
3.1480,1.6810,1.6512,1.6214,1
3.1480,1.6867,1.6440,1.6198,1
3.1480,1.6875,1.6432,1.6206,1
3.1480,1.6891,1.6560,1.6826,1
3.1480,1.6923,1.6593,1.6875,1
3.1480,1.6915,1.6633,1.6762,1
3.1480,1.6947,1.6665,1.6738,1
3.1480,1.6963,1.6705,1.6697,1
3.1480,1.6891,1.6689,1.6617,1
3.1480,1.7052,1.6705,1.6577,1
3.1480,1.7004,1.6681,1.6552,1
3.1480,1.6988,1.6665,1.6528,1
3.1480,1.7004,1.6609,1.6552,1
3.1480,1.6979,1.6560,1.5980,1
3.1480,1.6907,1.6560,1.6158,1
3.1480,1.6947,1.6512,1.6286,1
3.1480,1.6915,1.6560,1.6399,1
3.1480,1.6923,1.6560,1.6488,1
3.1480,1.6971,1.6432,1.6625,1
3.1480,1.7028,1.6391,1.6689,1
3.1480,1.7004,1.6415,1.6681,1
3.1480,1.6988,1.6407,1.6794,1
3.1480,1.6979,1.6375,1.6818,1
3.1480,1.6979,1.6383,1.6867,1
3.1480,1.6996,1.6375,1.6794,1
3.1480,1.6955,1.6432,1.6738,1
3.1480,1.6979,1.6391,1.6746,1
3.1480,1.6996,1.6440,1.6705,1
3.1480,1.6971,1.6593,1.6641,1
3.1480,1.6939,1.6585,1.6681,1
3.1480,1.6947,1.6544,1.6641,1
3.1480,1.6955,1.6552,1.6585,1
3.1480,1.6931,1.6625,1.6520,1
3.1480,1.6883,1.6657,1.6456,1
3.1480,1.6947,1.6617,1.6423,1
3.1480,1.6746,1.6560,1.6407,1
3.1480,1.6746,1.6536,1.6311,1
3.1480,1.6714,1.6472,1.6327,1
3.1480,1.6730,1.6464,1.6359,1
3.1480,1.6810,1.6399,1.6286,1
3.1480,1.6859,1.6359,1.6295,1
3.1480,1.6730,1.6335,1.6335,1
3.1480,1.6794,1.6375,1.6367,1
3.1480,1.6842,1.6383,1.6391,1
3.1480,1.6810,1.6504,1.6359,1
3.1480,1.6947,1.5964,1.6375,1
3.1480,1.6907,1.6053,1.6359,1
3.1480,1.6947,1.6093,1.6407,1
3.1480,1.6891,1.6069,1.6423,1
3.1480,1.6802,1.6109,1.6504,1
3.1480,1.6738,1.6141,1.6544,1
3.1480,1.6810,1.6085,1.6504,1
3.1480,1.6681,1.6109,1.6456,1
3.1480,1.6665,1.6125,1.6496,1
3.1480,1.6649,1.6109,1.6528,1
3.1480,1.6722,1.6705,1.6488,1
3.1480,1.6697,1.6625,1.6496,1
3.1480,1.6633,1.6560,1.6399,1
3.1480,1.6681,1.6544,1.6472,1
3.1480,1.6705,1.6496,1.6432,1
3.1480,1.6681,1.6496,1.6383,1
3.1480,1.6665,1.6560,1.6480,1
3.1480,1.6786,1.6456,1.6504,1
3.1480,1.6762,1.6407,1.6496,1
3.1970,1.6754,1.6391,1.6512,1
3.1970,1.6705,1.6319,1.6528,1
3.1970,1.6778,1.6311,1.6528,1
3.1970,1.6746,1.6278,1.6601,1
3.1970,1.6714,1.6295,1.6544,1
3.1970,1.6714,1.6367,1.6520,1
3.1970,1.6754,1.6391,1.6528,1
3.1970,1.6770,1.6407,1.6432,1
3.1970,1.6738,1.6520,1.6496,1
3.1970,1.6770,1.6593,1.6464,1
3.1970,1.6802,1.6552,1.6423,1
3.1970,1.6834,1.6536,1.6351,1
3.1970,1.6778,1.6488,1.6399,1
3.1970,1.6834,1.6423,1.6383,1
3.1970,1.6867,1.6415,1.6440,1
3.1970,1.6875,1.6456,1.6423,1
3.1970,1.6867,1.6480,1.6464,1
3.1970,1.7020,1.6496,1.6464,1
3.1970,1.7052,1.6415,1.6456,1
3.1970,1.7036,1.6391,1.6544,1
3.1970,1.7012,1.6367,1.6544,1
3.1970,1.6585,1.6480,1.6560,1
3.1970,1.6633,1.6560,1.6504,1
3.1970,1.6705,1.6697,1.6480,1
3.1970,1.6722,1.6730,1.6423,1
3.1970,1.6770,1.6657,1.6423,1
3.1970,1.6754,1.6568,1.6383,1
3.1970,1.6617,1.6512,1.6399,1
3.1970,1.6536,1.6504,1.6351,1
3.1970,1.6665,1.6432,1.6286,1
3.1970,1.6697,1.6480,1.6311,1
3.1970,1.7116,1.6391,1.6351,1
3.1970,1.6826,1.6407,1.6375,1
3.1970,1.6786,1.6432,1.6423,1
3.1970,1.6746,1.6448,1.6415,1
3.1970,1.6705,1.6464,1.6423,1
3.1970,1.6705,1.6528,1.6391,1
3.1970,1.6681,1.6544,1.6359,1
3.1970,1.6746,1.6536,1.6415,1
3.1970,1.6528,1.6448,1.6391,1
3.1970,1.6939,1.6375,1.6375,1
3.1970,1.6971,1.6432,1.6383,1
3.1970,1.7181,1.6472,1.6423,1
3.1970,1.7125,1.6432,1.6504,1
3.1970,1.7092,1.6407,1.6423,1
3.1970,1.7092,1.6319,1.6399,1
3.1970,1.7068,1.6319,1.6423,1
3.1970,1.7068,1.6335,1.6383,1
3.1970,1.7068,1.6319,1.6440,1
3.1970,1.7141,1.6456,1.6456,1
3.1970,1.6689,1.6585,1.6415,1
3.1970,1.6673,1.6609,1.6399,1
3.1970,1.6577,1.6496,1.6319,1
3.1970,1.6593,1.6448,1.6198,1
3.1970,1.6649,1.6407,1.6254,1
3.1970,1.6673,1.6528,1.6230,1
3.1970,1.6649,1.6488,1.6238,1
3.1970,1.6697,1.6496,1.6319,1
3.1970,1.6657,1.6552,1.6335,1
3.1970,1.7302,1.6697,1.6319,1
3.1970,1.7318,1.6657,1.6351,1
3.1970,1.7286,1.6633,1.6399,1
3.1970,1.7382,1.6673,1.6456,1
3.1970,1.7334,1.6714,1.6488,1
3.1970,1.7302,1.6746,1.6440,1
3.1970,1.7262,1.6891,1.6440,1
3.1970,1.7334,1.6867,1.6472,1
3.1970,1.7326,1.6746,1.6456,1
3.1970,1.7390,1.6746,1.6399,1
3.1970,1.6746,1.6609,1.6399,1
3.1970,1.6746,1.6617,1.6351,1
3.1970,1.6786,1.6585,1.6319,1
3.1970,1.6842,1.6496,1.6327,1
3.1970,1.6875,1.6504,1.6343,1
3.1970,1.6891,1.6585,1.6423,1
3.1970,1.6931,1.6311,1.6456,1
3.1970,1.6915,1.6399,1.6391,1
3.1970,1.6907,1.6625,1.6391,1
3.1970,1.6915,1.6673,1.6367,1
3.1970,1.6923,1.6689,1.6311,1
3.1970,1.6939,1.6593,1.6367,1
3.1970,1.7036,1.6528,1.6399,1
3.1970,1.7012,1.6585,1.6391,1
3.1970,1.7012,1.6552,1.6367,1
3.1970,1.7028,1.6464,1.6319,1
3.1970,1.6996,1.6601,1.6351,1
3.1970,1.6907,1.6617,1.6432,1
3.1970,1.7004,1.6520,1.6423,1
3.1970,1.6988,1.6496,1.6432,1
3.1970,1.6996,1.6480,1.6593,1
3.1970,1.7004,1.6528,1.6577,1
3.1970,1.6996,1.6609,1.6512,1
3.1970,1.7028,1.6641,1.6448,1
3.1970,1.6979,1.6641,1.6423,1
3.1970,1.6931,1.7004,1.6456,1
3.1970,1.6947,1.6955,1.6399,1
3.1970,1.7036,1.6891,1.6383,1
3.1970,1.6899,1.6851,1.6391,1
3.1970,1.6859,1.6778,1.6375,1
3.2475,1.6867,1.6722,1.6286,1
3.2475,1.6826,1.6689,1.6303,1
3.2475,1.6738,1.6633,1.6351,1
3.2475,1.6665,1.6585,1.6585,1
3.2475,1.6754,1.6625,1.6609,1
3.2475,1.6746,1.6327,1.6601,1
3.2475,1.6754,1.6415,1.6601,1
3.2475,1.6899,1.6448,1.6923,1
3.2475,1.6923,1.6423,1.6891,1
3.2475,1.7036,1.6383,1.6778,1
3.2475,1.7012,1.6415,1.6705,1
3.2475,1.7012,1.6488,1.6649,1
3.2475,1.6996,1.6585,1.6657,1
3.2475,1.7092,1.6722,1.6504,1
3.2475,1.7028,1.6996,1.6472,1
3.2475,1.7052,1.6939,1.6520,1
3.2475,1.7028,1.6899,1.6568,1
3.2475,1.6931,1.6875,1.6246,1
3.2481,1.6915,1.6955,1.6278,1
3.2481,1.6818,1.6996,1.6391,1
3.2481,1.6818,1.7092,1.6432,1
3.2481,1.6802,1.6939,1.6456,1
3.2481,1.6786,1.6883,1.6464,1
3.2481,1.6746,1.6714,1.6512,1
3.2481,1.6778,1.6440,1.6560,1
3.2481,1.6649,1.6472,1.6536,1
3.2481,1.6649,1.6295,1.6464,1
3.2481,1.6593,1.6303,1.6504,1
3.2481,1.6649,1.6303,1.6528,1
3.2481,1.6609,1.6375,1.6496,1
3.2481,1.6746,1.6351,1.6520,1
3.2481,1.6810,1.6504,1.6544,1
3.2481,1.6859,1.6536,1.6560,1
3.2481,1.6859,1.6657,1.6496,1
3.2481,1.6818,1.6633,1.6432,1
3.2481,1.6939,1.6593,1.6343,1
3.2481,1.6915,1.6681,1.6335,1
3.2481,1.6899,1.6504,1.6295,1
3.2481,1.6399,1.6480,1.6278,1
3.2481,1.6512,1.6641,1.6327,1
3.2481,1.6391,1.6593,1.6278,1
3.2481,1.6399,1.6536,1.6254,1
3.2481,1.6246,1.6504,1.6206,1
3.2481,1.6649,1.6423,1.6222,1
3.2481,1.6673,1.6222,1.6270,1
3.2481,1.6697,1.6246,1.6295,1
3.2481,1.6697,1.6327,1.6367,1
3.2481,1.6705,1.6536,1.6480,1
3.2481,1.7092,1.6593,1.6440,1
3.2481,1.6988,1.6399,1.6423,1
3.2481,1.6947,1.6407,1.6391,1
3.2481,1.6883,1.6383,1.6375,1
3.2481,1.6971,1.6351,1.6407,1
3.2481,1.6536,1.6327,1.6359,1
3.2481,1.6593,1.6528,1.6303,1
3.2481,1.6778,1.6536,1.6351,1
3.2481,1.6754,1.6544,1.6383,1
3.2481,1.6714,1.6601,1.6254,1
3.2481,1.6778,1.6673,1.6343,1
3.2481,1.6842,1.6689,1.6335,1
3.2481,1.6826,1.6657,1.6351,1
3.2481,1.6818,1.6697,1.6359,1
3.2481,1.6867,1.6689,1.6496,1
3.2481,1.6883,1.6689,1.6520,1
3.2481,1.6834,1.6689,1.6504,1
3.2481,1.6649,1.6714,1.6512,1
3.2481,1.6754,1.6714,1.6246,1
3.2481,1.6794,1.6657,1.6254,1
3.2481,1.6794,1.6536,1.6222,1
3.2481,1.6786,1.6536,1.6254,1
3.2481,1.6883,1.6528,1.6375,1
3.2481,1.6907,1.6512,1.6351,1
3.2481,1.6939,1.6568,1.6254,1
3.2481,1.6939,1.6665,1.6158,1
3.2481,1.6979,1.6794,1.6238,1
3.2481,1.6971,1.6826,1.6254,1
3.2481,1.6931,1.6738,1.6512,1
3.2481,1.7020,1.6705,1.6528,1
3.2481,1.7044,1.6705,1.6577,1
3.2481,1.7076,1.6681,1.6496,1
3.2481,1.7020,1.6665,1.6407,1
3.2481,1.7004,1.6681,1.6464,1
3.2481,1.6947,1.6705,1.6415,1
3.2481,1.6963,1.6746,1.6480,1
3.2481,1.6915,1.6665,1.6440,1
3.2481,1.6939,1.6625,1.6351,1
3.2481,1.6963,1.6657,1.6327,1
3.2481,1.6891,1.6568,1.6303,1
3.2481,1.6883,1.6520,1.6190,1
3.2481,1.6826,1.6577,1.6198,1
3.2481,1.6867,1.6705,1.6246,1
3.2487,1.6891,1.6689,1.6238,1
3.2487,1.6859,1.6657,1.6254,1
3.2487,1.6891,1.6641,1.6319,1
3.2487,1.6899,1.6560,1.6311,1
3.2487,1.6867,1.6528,1.6351,1
3.2487,1.6842,1.6552,1.6375,1
3.2487,1.6851,1.6633,1.6383,1
3.2487,1.6851,1.6754,1.6423,1
3.2487,1.6842,1.6705,1.6432,1
3.2487,1.6778,1.6617,1.6399,1
3.2820,1.6770,1.6665,1.6432,1
3.2820,1.6818,1.6705,1.6423,1
3.2820,1.6778,1.6633,1.6359,1
3.2820,1.6762,1.6641,1.6375,1
3.2820,1.6794,1.6528,1.6399,1
3.2820,1.6826,1.6496,1.6399,1
3.2820,1.6802,1.6520,1.6351,1
3.2820,1.6770,1.6448,1.6335,1
3.2820,1.6786,1.6488,1.6448,1
3.2820,1.6794,1.6544,1.6480,1
3.2820,1.6834,1.6520,1.6480,1
3.2820,1.6859,1.6496,1.6488,1
3.2820,1.6899,1.6496,1.6480,1
3.2820,1.6899,1.6504,1.6448,1
3.2820,1.6818,1.6625,1.6528,1
3.2820,1.6842,1.6714,1.6472,1
3.2820,1.6875,1.6770,1.6488,1
3.2820,1.6867,1.6722,1.6464,1
3.2820,1.6842,1.6673,1.6359,1
3.2820,1.6875,1.6625,1.6327,1
3.2820,1.6842,1.6601,1.6367,1
3.2820,1.6714,1.6609,1.6262,1
3.2820,1.6649,1.6609,1.6270,1
3.2820,1.6657,1.6665,1.6327,1
3.2820,1.6746,1.6673,1.6351,1
3.2820,1.6617,1.6665,1.6407,1
3.2820,1.6585,1.6625,1.6432,1
3.2820,1.6609,1.6673,1.6440,1
3.2820,1.6657,1.6697,1.6440,1
3.2820,1.6633,1.6681,1.6528,1
3.2820,1.6577,1.6649,1.6448,1
3.2820,1.6689,1.6609,1.6496,1
3.2820,1.6722,1.6585,1.6544,1
3.2820,1.6722,1.6568,1.6536,1
3.2820,1.6714,1.6625,1.6440,1
3.2820,1.6810,1.6617,1.6407,1
3.2820,1.6826,1.6617,1.6383,1
3.2820,1.6794,1.6625,1.6407,1
3.2820,1.6730,1.6609,1.6423,1
3.2820,1.6762,1.6585,1.6383,1
3.2820,1.6810,1.6641,1.5972,1
3.2820,1.6762,1.6705,1.6021,1
3.2820,1.6770,1.6770,1.6037,1
3.2820,1.6794,1.6786,1.6061,1
3.2820,1.6746,1.6665,1.6174,1
3.2820,1.6738,1.6577,1.6206,1
3.2820,1.6746,1.6552,1.6230,1
3.2820,1.6746,1.6423,1.6206,1
3.2820,1.6794,1.6423,1.6222,1
3.2820,1.6762,1.6464,1.6198,1
3.2820,1.6786,1.6504,1.6617,1
3.2820,1.6818,1.6528,1.6601,1
3.2820,1.6810,1.6536,1.6440,1
3.2820,1.6754,1.6915,1.6391,1
3.2820,1.6778,1.6923,1.6158,1
3.2820,1.6754,1.6988,1.6141,1
3.2820,1.6705,1.6963,1.6109,1
3.2820,1.6722,1.7036,1.6133,1
3.2820,1.6714,1.6907,1.6141,1
3.2820,1.6762,1.6875,1.6158,1
3.2820,1.6738,1.6810,1.6141,1
3.2820,1.6705,1.6786,1.6149,1
3.2820,1.6730,1.6770,1.6230,1
3.2820,1.6770,1.6367,1.6851,1
3.2820,1.6826,1.6367,1.6979,1
3.2820,1.6826,1.6383,1.6883,1
3.2820,1.6891,1.6407,1.6883,1
3.2820,1.6899,1.6456,1.6794,1
3.2820,1.6859,1.6649,1.6673,1
3.2820,1.6818,1.6697,1.6625,1
3.2820,1.6875,1.6762,1.6609,1
3.2820,1.6891,1.6778,1.6577,1
3.2820,1.6851,1.6585,1.6617,1
3.2820,1.6810,1.6496,1.6012,1
3.2820,1.6786,1.6544,1.6037,1
3.2820,1.6859,1.6536,1.6045,1
3.2820,1.6810,1.6528,1.6125,1
3.2820,1.6810,1.6536,1.6230,1
3.2820,1.6859,1.6504,1.6399,1
3.2820,1.6826,1.6504,1.6464,1
3.2820,1.6778,1.6641,1.6504,1
3.2820,1.6754,1.6601,1.6560,1
3.2820,1.6778,1.6738,1.6617,1
3.3307,1.6794,1.6818,1.6649,1
3.3307,1.6657,1.6810,1.6601,1
3.3307,1.6568,1.6786,1.6673,1
3.3307,1.6657,1.6786,1.6657,1
3.3307,1.6689,1.6746,1.6681,1
3.3307,1.6673,1.6689,1.6746,1
3.3307,1.6697,1.6568,1.6730,1
3.3307,1.6504,1.6351,1.6681,1
3.3307,1.6577,1.6375,1.6673,1
3.3307,1.6472,1.6391,1.6585,1
3.3307,1.6568,1.6407,1.6617,1
3.3307,1.6722,1.6456,1.6641,1
3.3307,1.6754,1.6560,1.6601,1
3.3307,1.6673,1.6512,1.6528,1
3.3307,1.6705,1.6552,1.6456,1
3.3307,1.6730,1.6528,1.6319,1
3.3307,1.6673,1.6464,1.6262,1
3.3307,1.6867,1.6448,1.6246,1
3.3307,1.6875,1.6407,1.6230,1
3.3307,1.6988,1.6472,1.6238,1
3.3307,1.6891,1.6585,1.6158,1
3.3307,1.6875,1.6601,1.6109,1
3.3307,1.6818,1.6520,1.6174,1
3.3307,1.6842,1.6560,1.6198,1
3.3307,1.6730,1.6528,1.6262,1
3.3314,1.6641,1.6593,1.6286,1
3.3314,1.6730,1.6778,1.6335,1
3.3314,1.6697,1.6842,1.6464,1
3.3314,1.6601,1.6859,1.6456,1
3.3314,1.6593,1.6818,1.6464,1
3.3314,1.6673,1.6681,1.6512,1
3.3314,1.6665,1.6609,1.6544,1
3.3314,1.6730,1.6568,1.6488,1
3.3314,1.6705,1.6536,1.6456,1
3.3314,1.6770,1.6536,1.6464,1
3.3314,1.6818,1.6552,1.6456,1
3.3314,1.6778,1.6947,1.6448,1
3.3314,1.6754,1.6923,1.6464,1
3.3314,1.6802,1.6955,1.6432,1
3.3314,1.6826,1.6971,1.6432,1
3.3314,1.6762,1.7060,1.6399,1
3.3314,1.6770,1.7060,1.6423,1
3.3314,1.6778,1.7068,1.6448,1
3.3314,1.6770,1.7012,1.6512,1
3.3314,1.6778,1.6947,1.6496,1
3.3314,1.6770,1.6947,1.6488,1
3.3314,1.6802,1.6681,1.6448,1
3.3314,1.6915,1.6746,1.6359,1
3.3314,1.6875,1.6746,1.6432,1
3.3314,1.6867,1.6722,1.6464,1
3.3314,1.6891,1.6673,1.6061,1
3.3314,1.6867,1.6705,1.6069,1
3.3314,1.6818,1.6746,1.6093,1
3.3314,1.6842,1.6891,1.6133,1
3.3314,1.6834,1.7036,1.6141,1
3.3314,1.6834,1.7108,1.6166,1
3.3314,1.6794,1.7028,1.6166,1
3.3314,1.6778,1.6971,1.6149,1
3.3314,1.6794,1.6875,1.6117,1
3.3314,1.6802,1.6818,1.6109,1
3.3314,1.6754,1.6834,1.6488,1
3.3314,1.6770,1.6834,1.6440,1
3.3314,1.6794,1.6842,1.6383,1
3.3314,1.6786,1.6851,1.6303,1
3.3314,1.6762,1.6826,1.6351,1
3.3314,1.6778,1.6810,1.6278,1
3.3314,1.6794,1.6770,1.6295,1
3.3314,1.6794,1.6794,1.6286,1
3.3314,1.6802,1.6867,1.6278,1
3.3314,1.6786,1.6923,1.6295,1
3.3314,1.6931,1.6907,1.6367,1
3.3314,1.6883,1.6834,1.6335,1
3.3314,1.6883,1.6802,1.6286,1
3.3314,1.6867,1.6810,1.6303,1
3.3314,1.6891,1.6754,1.6254,1
3.3314,1.6939,1.6689,1.6254,1
3.3314,1.6939,1.6681,1.6222,1
3.3314,1.6907,1.6649,1.6222,1
3.3314,1.6931,1.6593,1.6246,1
3.3314,1.6988,1.6568,1.6278,1
3.3314,1.6859,1.6625,1.6222,1
3.3314,1.6915,1.6722,1.6246,1
3.3314,1.6963,1.6786,1.6343,1
3.3805,1.6955,1.6778,1.6351,1
3.3805,1.6931,1.6754,1.6311,1
3.3805,1.6851,1.6681,1.6335,1
3.3805,1.6899,1.6552,1.6359,1
3.3805,1.6947,1.6544,1.6375,1
3.3805,1.6834,1.6625,1.6407,1
3.3805,1.6826,1.6681,1.6391,1
3.3805,1.6834,1.6689,1.6399,1
3.3805,1.6794,1.6746,1.6464,1
3.3805,1.6319,1.6705,1.6464,1
3.3805,1.6432,1.6665,1.6552,1
3.3805,1.6480,1.6577,1.6560,1
3.3805,1.6536,1.6657,1.6577,1
3.3805,1.6512,1.6786,1.6536,1
3.3805,1.6504,1.6883,1.6560,1
3.3805,1.6714,1.6826,1.6544,1
3.3805,1.6722,1.6746,1.6536,1
3.3805,1.6689,1.6689,1.6520,1
3.3805,1.6738,1.6657,1.6480,1
3.3805,1.7141,1.6649,1.6367,1
3.3805,1.7044,1.6641,1.6303,1
3.3805,1.7012,1.6754,1.6327,1
3.3805,1.6979,1.6722,1.6311,1
3.3805,1.6963,1.6794,1.6343,1
3.3805,1.6867,1.6794,1.6359,1
3.3805,1.6754,1.6810,1.6351,1
3.3805,1.6689,1.6923,1.6311,1
3.3805,1.6681,1.6971,1.6295,1
3.3805,1.6617,1.6923,1.6246,1
3.3805,1.6609,1.6947,1.6367,1
3.3805,1.6633,1.6907,1.6335,1
3.3805,1.6633,1.6875,1.6327,1
3.3805,1.6601,1.6883,1.6351,1
3.3805,1.6665,1.6786,1.6383,1
3.3805,1.6738,1.6754,1.6375,1
3.3805,1.6641,1.6810,1.6254,1
3.3805,1.6665,1.6834,1.6262,1
3.3805,1.6730,1.6770,1.6295,1
3.3805,1.6786,1.6762,1.6238,1
3.3805,1.6810,1.6746,1.6278,1
3.3805,1.6770,1.6802,1.6262,1
3.3805,1.6778,1.6875,1.5875,1
3.3805,1.6810,1.6899,1.5916,1
3.3805,1.6738,1.6907,1.5916,1
3.3805,1.6746,1.6738,1.5900,1
3.3805,1.6963,1.6705,1.6053,1
3.3805,1.6907,1.6633,1.5996,1
3.3805,1.6480,1.6641,1.5932,1
3.3805,1.6464,1.6665,1.6045,1
3.3805,1.6512,1.6657,1.6093,1
3.3805,1.6560,1.6625,1.6093,1
3.3805,1.6577,1.6689,1.6415,1
3.3805,1.6520,1.6738,1.6311,1
3.3805,1.6633,1.6802,1.6303,1
3.3805,1.6697,1.6947,1.6295,1
3.3805,1.6560,1.6939,1.6359,1
3.3805,1.6593,1.6842,1.6399,1
3.3805,1.7004,1.6770,1.6423,1
3.3805,1.6971,1.6746,1.6351,1
3.3805,1.6907,1.6778,1.6222,1
3.3805,1.6915,1.6802,1.6230,1
3.3805,1.6891,1.6770,1.6214,1
3.3805,1.6955,1.6714,1.6254,1
3.3805,1.6859,1.6722,1.6222,1
3.3805,1.6738,1.6689,1.6206,1
3.3805,1.6714,1.6649,1.6093,1
3.3805,1.6722,1.6681,1.6085,1
3.3805,1.6681,1.6722,1.6109,1
3.3805,1.6665,1.6730,1.6198,1
3.3805,1.6689,1.6649,1.6262,1
3.3805,1.6641,1.6673,1.6295,1
3.3805,1.6657,1.6593,1.6367,1
3.3805,1.6407,1.6585,1.6359,1
3.3805,1.6456,1.6496,1.6407,1
3.3805,1.6488,1.6488,1.6383,1
3.3805,1.6585,1.6536,1.6351,1
3.3805,1.6617,1.6585,1.6391,1
3.3805,1.6673,1.6633,1.6697,1
3.3805,1.6754,1.6689,1.6834,1
3.3805,1.6818,1.6778,1.6746,1
3.3805,1.6851,1.6746,1.6633,1
3.3805,1.6834,1.6746,1.6593,1
3.3805,1.7052,1.6746,1.6577,1
3.3805,1.6996,1.6697,1.6577,1
3.3805,1.7004,1.6714,1.6633,1
3.3805,1.6988,1.6649,1.6665,1
3.3805,1.6979,1.6649,1.6665,1
3.3805,1.6988,1.6689,1.6359,1
3.3805,1.6971,1.6665,1.6214,1
3.3805,1.6923,1.6673,1.6286,1
3.3805,1.6875,1.6560,1.6359,1
3.3805,1.6859,1.6633,1.6367,1
3.3805,1.6891,1.6665,1.6456,1
3.3805,1.6923,1.6714,1.6504,1
3.3805,1.6883,1.6714,1.6480,1
3.3805,1.6818,1.6746,1.6375,1
3.3805,1.6826,1.6818,1.6496,1
3.3805,1.6826,1.6730,1.6504,1
3.3805,1.6826,1.6673,1.6520,1
3.3805,1.6778,1.6536,1.6464,1
3.4305,1.6826,1.6601,1.6496,1
3.4305,1.6818,1.6536,1.6496,1
3.4305,1.6762,1.6504,1.6464,1
3.4305,1.6778,1.6520,1.6480,1
3.4305,1.7004,1.6544,1.6480,1
3.4305,1.7004,1.6649,1.6504,1
3.4305,1.6939,1.6488,1.6375,1
3.4305,1.6915,1.6536,1.6367,1
3.4305,1.6907,1.6585,1.6343,1
3.4305,1.6891,1.6649,1.6351,1
3.4305,1.6834,1.6673,1.6311,1
3.4305,1.6842,1.6625,1.6351,1
3.4305,1.6939,1.6601,1.6311,1
3.4305,1.6915,1.6617,1.6270,1
3.4305,1.6810,1.6641,1.6254,1
3.4305,1.6842,1.6585,1.6303,1
3.4305,1.6891,1.6649,1.6303,1
3.4305,1.6883,1.6625,1.6295,1
3.4305,1.6891,1.6601,1.6230,1
3.4305,1.6979,1.6560,1.6278,1
3.4305,1.7044,1.6601,1.6440,1
3.4305,1.7036,1.6681,1.6432,1
3.4305,1.6955,1.6714,1.6472,1
3.4305,1.6971,1.6762,1.6415,1
3.4305,1.6907,1.6633,1.6423,1
3.4305,1.6875,1.6552,1.6415,1
3.4305,1.6859,1.6512,1.6456,1
3.4305,1.6867,1.6488,1.6480,1
3.4305,1.6842,1.6504,1.6552,1
3.4305,1.6834,1.6577,1.6101,1
3.4305,1.6786,1.6593,1.6029,1
3.4305,1.6859,1.6625,1.6037,1
3.4305,1.6907,1.6617,1.6069,1
3.4305,1.6883,1.6568,1.6109,1
3.4305,1.6842,1.6633,1.6319,1
3.4305,1.6899,1.6689,1.6311,1
3.4305,1.6947,1.6754,1.6286,1
3.4305,1.6915,1.6810,1.6254,1
3.4305,1.6923,1.6762,1.6262,1
3.4305,1.6923,1.6673,1.6673,1
3.4305,1.6939,1.6665,1.6617,1
3.4305,1.6875,1.6633,1.6609,1
3.4305,1.6818,1.6609,1.6577,1
3.4305,1.6746,1.6601,1.6552,1
3.4305,1.6657,1.6625,1.6423,1
3.4305,1.6641,1.6641,1.6399,1
3.4305,1.6617,1.6617,1.6432,1
3.4305,1.6649,1.6560,1.6407,1
3.4305,1.6633,1.6577,1.6383,1
3.4305,1.6609,1.6689,1.6383,1
3.4305,1.6601,1.6722,1.6351,1
3.4305,1.6649,1.6697,1.6335,1
3.4305,1.6681,1.6649,1.6343,1
3.4305,1.6738,1.6593,1.6359,1
3.4305,1.6818,1.6544,1.6262,1
5.2637,1.6399,1.6448,1.6488,1
5.2637,1.6432,1.6440,1.6488,1
5.2637,1.6415,1.6464,1.6472,1
5.2637,1.6391,1.6480,1.6496,1
5.2637,1.6375,1.6504,1.6504,1
5.2637,1.6351,1.6504,1.6472,1
5.2637,1.6319,1.6488,1.6456,1
5.2637,1.6303,1.6520,1.6464,1
5.2637,1.6278,1.6488,1.6568,1
5.2637,1.6222,1.6472,1.6536,1
5.2637,1.6254,1.6488,1.6560,1
5.2637,1.6222,1.6456,1.6560,1
5.2637,1.6182,1.6480,1.6552,1
5.2637,1.6141,1.6480,1.6544,1
5.2637,1.6158,1.6464,1.6528,1
5.2637,1.6182,1.6391,1.6585,1
5.2637,1.6206,1.6448,1.6625,1
5.2637,1.6214,1.6496,1.6609,1
5.2637,1.6222,1.6456,1.6520,1
5.2637,1.6278,1.6456,1.6528,1
5.2637,1.6343,1.6504,1.6504,1
5.2637,1.6295,1.6568,1.6528,1
5.2637,1.6335,1.6528,1.6560,1
5.2637,1.6367,1.6496,1.6568,1
5.2637,1.6270,1.6415,1.6568,1
5.2637,1.6174,1.6504,1.6560,1
5.2637,1.6158,1.6528,1.6520,1
5.2637,1.6125,1.6472,1.6552,1
5.2637,1.6109,1.6504,1.6544,1
5.2637,1.6085,1.6512,1.6536,1
5.2637,1.5996,1.6504,1.6528,1
5.2637,1.6037,1.6504,1.6536,1
5.2637,1.6045,1.6456,1.6504,1
5.2637,1.6037,1.6448,1.6512,1
5.2637,1.6101,1.6496,1.6488,1
5.2637,1.6174,1.6544,1.6568,1
5.2637,1.6158,1.6488,1.6593,1
5.2637,1.6182,1.6456,1.6536,1
5.2637,1.6182,1.6464,1.6705,1
5.2637,1.6206,1.6520,1.6802,1
5.2637,1.6254,1.6423,1.6762,1
5.2637,1.6246,1.6423,1.6697,1
5.2637,1.6230,1.6415,1.6705,1
5.2637,1.6246,1.6480,1.6697,1
5.2637,1.6230,1.6560,1.6689,1
5.2637,1.6222,1.6512,1.6577,1
5.2637,1.6238,1.6512,1.6560,1
5.2637,1.6246,1.6512,1.6609,1
5.2637,1.6254,1.6560,1.6415,1
5.2637,1.6238,1.6568,1.6327,1
5.2637,1.6246,1.6673,1.6391,1
5.2637,1.6238,1.6609,1.6448,1
5.2637,1.6286,1.6657,1.6415,1
5.2637,1.6286,1.6657,1.6432,1
5.2637,1.6286,1.6593,1.6464,1
5.2637,1.6311,1.6528,1.6504,1
5.2637,1.6254,1.6488,1.6552,1
5.2637,1.6246,1.6528,1.6488,1
5.2637,1.6198,1.6448,1.6528,1
5.2637,1.6141,1.6423,1.6585,1
5.2637,1.6085,1.6415,1.6504,1
5.2637,1.6029,1.6432,1.6472,1
5.2637,1.5956,1.6528,1.6504,1
5.2637,1.5972,1.6512,1.6520,1
5.2637,1.6012,1.6528,1.6520,1
5.2637,1.6037,1.6520,1.6464,1
5.2637,1.6117,1.6593,1.6528,1
5.2637,1.6125,1.6601,1.6577,1
5.2637,1.6182,1.6657,1.6520,1
5.2637,1.6238,1.6641,1.6496,1
5.2637,1.6286,1.6609,1.6593,1
5.2637,1.6335,1.6641,1.6577,1
5.2637,1.6351,1.6585,1.6544,1
5.2637,1.6270,1.6568,1.6480,1
5.2637,1.6238,1.6512,1.6480,1
5.2637,1.6149,1.6488,1.6520,1
5.2637,1.6101,1.6504,1.6496,1
5.2637,1.6109,1.6496,1.6472,1
5.2637,1.6093,1.6464,1.6512,1
5.2637,1.6085,1.6456,1.6512,1
5.2637,1.6029,1.6440,1.6488,1
5.2637,1.6045,1.6472,1.6512,1
5.2637,1.6085,1.6423,1.6568,1
5.2637,1.6061,1.6407,1.6609,1
5.2637,1.6012,1.6423,1.6593,1
5.2637,1.6021,1.6520,1.6609,1
5.2637,1.6037,1.6520,1.6681,1
5.2637,1.6029,1.6464,1.6649,1
5.2637,1.5996,1.6432,1.6609,1
5.2637,1.5964,1.6456,1.6577,1
5.2637,1.6053,1.6472,1.6577,1
5.2637,1.6053,1.6407,1.6560,1
5.2637,1.6037,1.6391,1.6520,1
5.2637,1.6133,1.6375,1.6504,1
5.2637,1.6182,1.6375,1.6552,1
5.2637,1.6238,1.6415,1.6560,1
5.2637,1.6190,1.6391,1.6432,1
5.2637,1.6198,1.6335,1.6496,1
5.2637,1.6254,1.6391,1.6520,1
5.2637,1.6278,1.6448,1.6504,1
5.2637,1.6246,1.6415,1.6488,1
5.2637,1.6230,1.6432,1.6504,1
5.2637,1.6149,1.6432,1.6560,1
5.2637,1.6141,1.6423,1.6568,1
5.2637,1.6125,1.6504,1.6560,1
5.2637,1.6101,1.6488,1.6528,1
5.2637,1.6158,1.6448,1.6488,1
5.2637,1.6141,1.6568,1.6472,1
5.2637,1.6125,1.6528,1.6432,1
5.2637,1.6125,1.6480,1.6488,1
5.2637,1.6133,1.6528,1.6496,1
5.2637,1.6141,1.6440,1.6456,1
5.2637,1.6206,1.6448,1.6375,1
5.2637,1.6238,1.6520,1.6343,1
5.2637,1.6246,1.6520,1.6303,1
5.2637,1.6214,1.6423,1.6319,1
5.2637,1.6214,1.6415,1.6335,1
5.2637,1.6214,1.6432,1.6335,1
5.2637,1.6214,1.6423,1.6311,1
5.2637,1.6214,1.6432,1.6311,1
5.2637,1.6166,1.6391,1.6206,1
5.2637,1.6182,1.6464,1.6262,1
5.2637,1.6182,1.6536,1.6278,1
5.2637,1.6166,1.6544,1.6278,1
5.2637,1.6174,1.6472,1.6230,1
5.2985,1.6303,1.6641,1.6625,1
5.2985,1.6278,1.6681,1.6585,1
5.2985,1.6270,1.6617,1.6560,1
5.2985,1.6295,1.6657,1.6617,1
5.2985,1.6303,1.6601,1.6568,1
5.2985,1.6367,1.6649,1.6609,1
5.2985,1.6286,1.6697,1.6601,1
5.2985,1.6278,1.6681,1.6568,1
5.2985,1.6311,1.6601,1.6673,1
5.2985,1.6303,1.6593,1.6689,1
5.2985,1.6149,1.6472,1.6262,1
5.2985,1.6166,1.6496,1.6295,1
5.2985,1.6141,1.6544,1.6190,1
5.2985,1.6101,1.6520,1.6214,1
5.2985,1.6061,1.6560,1.6246,1
5.2985,1.6004,1.6552,1.6327,1
5.2985,1.6077,1.6262,1.6423,1
5.2985,1.6061,1.6295,1.6480,1
5.2985,1.6045,1.6319,1.6440,1
5.2985,1.6069,1.6472,1.6448,1
5.2985,1.6149,1.6560,1.6456,1
5.2985,1.6166,1.6536,1.6480,1
5.2985,1.6158,1.6512,1.6593,1
5.2985,1.6190,1.6448,1.6593,1
5.2985,1.6222,1.6440,1.6617,1
5.2985,1.6254,1.6464,1.6568,1
5.2985,1.6182,1.6730,1.6488,1
5.2985,1.6158,1.6568,1.6512,1
5.2985,1.6125,1.6560,1.6488,1
5.2985,1.6061,1.6472,1.6472,1
5.2985,1.5988,1.6577,1.6617,1
5.2985,1.5980,1.6488,1.6577,1
5.2985,1.6021,1.6448,1.6577,1
5.2985,1.6021,1.6552,1.6593,1
5.2985,1.6021,1.6520,1.6536,1
5.2985,1.6037,1.6496,1.6617,1
5.2985,1.6109,1.6520,1.6568,1
5.2985,1.6141,1.6577,1.6496,1
5.2985,1.6133,1.6552,1.6480,1
5.2985,1.6166,1.6560,1.6512,1
5.2985,1.6214,1.6423,1.6335,1
5.2985,1.6117,1.6415,1.6303,1
5.2985,1.6077,1.6448,1.6303,1
5.2985,1.6029,1.6464,1.6319,1
5.2985,1.6045,1.6504,1.6351,1
5.2985,1.5996,1.6504,1.6303,1
5.2985,1.6004,1.6472,1.6004,1
5.2985,1.5972,1.6480,1.6093,1
5.2985,1.5996,1.6568,1.6109,1
5.2985,1.6037,1.6528,1.6125,1
5.2985,1.6045,1.6440,1.6182,1
5.2985,1.6149,1.6512,1.6238,1
5.2985,1.6206,1.6552,1.6286,1
5.2985,1.6238,1.6480,1.6254,1
5.2985,1.6174,1.6415,1.6045,1
5.2985,1.6214,1.6407,1.6141,1
5.2985,1.6214,1.6464,1.6504,1
5.2985,1.6254,1.6504,1.6496,1
5.2985,1.6254,1.6472,1.6440,1
5.2985,1.6262,1.6448,1.6448,1
5.2985,1.6254,1.6504,1.6448,1
5.2985,1.6182,1.6480,1.6375,1
5.2985,1.6125,1.6560,1.6335,1
5.2985,1.6141,1.6609,1.6391,1
5.2985,1.6214,1.6609,1.6448,1
5.2985,1.6206,1.6617,1.6295,1
5.2985,1.6190,1.6601,1.6230,1
5.2985,1.6206,1.6601,1.6198,1
5.2985,1.6158,1.6568,1.6190,1
5.2985,1.6125,1.6504,1.6133,1
5.2985,1.6077,1.6472,1.6149,1
5.2985,1.6141,1.6552,1.6190,1
5.2985,1.6190,1.6464,1.6174,1
5.2985,1.6174,1.6423,1.6117,1
5.2985,1.6174,1.6480,1.6286,1
5.2985,1.6141,1.6488,1.6335,1
5.2985,1.6158,1.6504,1.6343,1
5.2985,1.6149,1.6496,1.6359,1
5.2985,1.6190,1.6448,1.6109,1
5.2985,1.6149,1.6536,1.6174,1
5.2985,1.6230,1.6625,1.6198,1
5.2985,1.6230,1.6617,1.6230,1
5.2985,1.6246,1.6544,1.6359,1
5.2985,1.6262,1.6577,1.6399,1
5.2985,1.6270,1.6601,1.6367,1
5.2985,1.6327,1.6625,1.6536,1
5.2985,1.6295,1.6585,1.6633,1
5.2985,1.6270,1.6601,1.6552,1
5.2985,1.6270,1.6609,1.6810,1
5.2985,1.6246,1.6657,1.6754,1
5.2985,1.6174,1.6633,1.6722,1
5.2985,1.6166,1.6577,1.6851,1
5.2985,1.6117,1.6593,1.6738,1
5.2985,1.6109,1.6601,1.6625,1
5.2985,1.6053,1.6641,1.6617,1
5.2985,1.6069,1.6585,1.6448,1
5.2985,1.6109,1.6536,1.6399,1
5.2985,1.6133,1.6544,1.6448,1
5.2985,1.6149,1.6609,1.6488,1
5.2985,1.6238,1.6585,1.6480,1
5.2985,1.6311,1.6568,1.6488,1
5.2985,1.6303,1.6593,1.6367,1
5.2985,1.6327,1.6641,1.6407,1
5.2985,1.6311,1.6657,1.6440,1
5.2985,1.6343,1.6633,1.6488,1
5.2985,1.6295,1.6657,1.6488,1
5.2985,1.6190,1.6657,1.6480,1
5.2985,1.6198,1.6649,1.6520,1
5.2985,1.6133,1.6673,1.6512,1
5.2985,1.6125,1.6665,1.6560,1
5.2985,1.6061,1.6617,1.6593,1
5.2985,1.6021,1.6625,1.6528,1
5.2985,1.6045,1.6609,1.6480,1
5.2985,1.6061,1.6593,1.6520,1
5.2985,1.6077,1.6577,1.6512,1
5.2985,1.6101,1.6528,1.6504,1
5.2985,1.6198,1.6568,1.6496,1
5.2985,1.6198,1.6625,1.6609,1
5.2985,1.6254,1.6601,1.6617,1
5.2985,1.6190,1.6520,1.6568,1
5.2985,1.6238,1.6544,1.6504,1
5.2985,1.6214,1.6568,1.6568,1
5.2985,1.6222,1.6593,1.6536,1
5.2985,1.6222,1.6552,1.6488,1
5.2985,1.6149,1.6496,1.6432,1
5.2985,1.6085,1.6552,1.6464,1
5.2985,1.6077,1.6609,1.6448,1
5.2985,1.6029,1.6577,1.6319,1
5.2985,1.6037,1.6552,1.6270,1
5.2985,1.6133,1.6625,1.6399,1
5.2985,1.6149,1.6665,1.6407,1
5.2985,1.6158,1.6714,1.6343,1
5.2985,1.6149,1.6673,1.6367,1
5.2985,1.6158,1.6641,1.6488,1
5.2985,1.6158,1.6689,1.6504,1
5.2985,1.6149,1.6697,1.6464,1
5.2985,1.6093,1.6770,1.6440,1
5.2985,1.6093,1.6714,1.6448,1
5.2985,1.6029,1.6665,1.6520,1
5.2985,1.5932,1.6665,1.6391,1
5.2985,1.5940,1.6633,1.6399,1
5.2985,1.6012,1.6770,1.6544,1
5.2985,1.6004,1.6762,1.6577,1
5.2985,1.5988,1.6754,1.6472,1
5.2985,1.6069,1.6770,1.6480,1
5.2985,1.6158,1.6786,1.6520,1
5.2985,1.6198,1.6673,1.6552,1
5.2985,1.6238,1.6625,1.6536,1
5.2985,1.6238,1.6649,1.6520,1
5.2985,1.6286,1.6714,1.6528,1
5.2985,1.6270,1.6730,1.6536,1
5.2985,1.6174,1.6504,1.6407,1
5.2985,1.6093,1.6488,1.6375,1
5.2985,1.6053,1.6601,1.6448,1
5.2985,1.5988,1.6617,1.6464,1
5.2985,1.5932,1.6560,1.6415,1
5.2985,1.5900,1.6528,1.6391,1
5.2985,1.5867,1.6577,1.6407,1
5.2985,1.5892,1.6681,1.6359,1
5.2985,1.5851,1.6705,1.6351,1
5.2985,1.5875,1.6641,1.6367,1
5.2985,1.5972,1.6641,1.6415,1
5.2985,1.6069,1.6673,1.6456,1
5.2985,1.6109,1.6875,1.6407,1
5.2985,1.6109,1.6834,1.6423,1
5.2985,1.6101,1.6818,1.6472,1
5.2985,1.6093,1.6802,1.6464,1
5.2985,1.6117,1.6810,1.6415,1
5.3478,1.6093,1.6714,1.6456,1
5.3478,1.6085,1.6633,1.6504,1
5.3478,1.6053,1.6705,1.6448,1
5.3478,1.6029,1.6681,1.6440,1
5.3478,1.5924,1.6689,1.6464,1
5.3478,1.5948,1.6472,1.6480,1
5.3478,1.5948,1.6415,1.6407,1
5.3478,1.6004,1.6423,1.6351,1
5.3478,1.6045,1.6472,1.6399,1
5.3478,1.6053,1.6456,1.6440,1
5.3478,1.6101,1.6512,1.6383,1
5.3478,1.6149,1.6512,1.6375,1
5.3478,1.6149,1.6520,1.6432,1
5.3478,1.6093,1.6585,1.6440,1
5.3478,1.6117,1.6593,1.6375,1
5.3478,1.6037,1.6577,1.6335,1
5.3478,1.6037,1.6641,1.6423,1
5.3478,1.6029,1.6673,1.6448,1
5.3478,1.5988,1.6697,1.6407,1
5.3486,1.5980,1.6746,1.6432,1
5.3486,1.5956,1.6641,1.6488,1
5.3486,1.5980,1.6665,1.6649,1
5.3486,1.5988,1.6641,1.6585,1
5.3486,1.6053,1.6633,1.6568,1
5.3486,1.6133,1.6617,1.6673,1
5.3486,1.6230,1.6585,1.6681,1
5.3486,1.6278,1.6593,1.6649,1
5.3486,1.6214,1.6617,1.6625,1
5.3486,1.6270,1.6609,1.6859,1
5.3486,1.6182,1.6544,1.6802,1
5.3486,1.6214,1.6577,1.6794,1
5.3486,1.6158,1.6568,1.6568,1
5.3486,1.6158,1.6609,1.6689,1
5.3486,1.6117,1.6609,1.6665,1
5.3486,1.6101,1.6560,1.6552,1
5.3486,1.6021,1.6585,1.6601,1
5.3486,1.5996,1.6593,1.6689,1
5.3486,1.6021,1.6593,1.6730,1
5.3486,1.6037,1.6544,1.6544,1
5.3486,1.6133,1.6544,1.6585,1
5.3486,1.6149,1.6601,1.6625,1
5.3486,1.6214,1.6649,1.6673,1
5.3486,1.6206,1.6617,1.6585,1
5.3486,1.6246,1.6512,1.6649,1
5.3486,1.6230,1.6504,1.6730,1
5.3486,1.6214,1.6512,1.6746,1
5.3486,1.6166,1.6480,1.6617,1
5.3486,1.6149,1.6464,1.6633,1
5.3486,1.6093,1.6512,1.6633,1
5.3486,1.6021,1.6496,1.6625,1
5.3486,1.5972,1.6512,1.6585,1
5.3486,1.5980,1.6480,1.6746,1
5.3486,1.5988,1.6399,1.6770,1
5.3486,1.5996,1.6504,1.6689,1
5.3486,1.6012,1.6552,1.6633,1
5.3486,1.6085,1.6568,1.6601,1
5.3486,1.6158,1.6585,1.6649,1
5.3486,1.6149,1.6568,1.6617,1
5.3486,1.6198,1.6456,1.6568,1
5.3486,1.6206,1.6536,1.6601,1
5.3486,1.6246,1.6504,1.6633,1
5.3486,1.6158,1.6480,1.6456,1
5.3486,1.6101,1.6512,1.6423,1
5.3486,1.6029,1.6496,1.6464,1
5.3486,1.5980,1.6528,1.6440,1
5.3486,1.5940,1.6456,1.6415,1
5.3486,1.5900,1.6432,1.6423,1
5.3486,1.5932,1.6383,1.6448,1
5.3486,1.5892,1.6488,1.6544,1
5.3486,1.5884,1.6496,1.6472,1
5.3486,1.5851,1.6456,1.6440,1
5.3486,1.5948,1.6440,1.6456,1
5.3486,1.6029,1.6504,1.6472,1
5.3486,1.6101,1.6528,1.6415,1
5.3486,1.6085,1.6472,1.6359,1
5.3486,1.6061,1.6504,1.6383,1
5.3486,1.6069,1.6496,1.6375,1
5.3486,1.6085,1.6560,1.6351,1
5.3486,1.6069,1.6568,1.6286,1
5.3486,1.6125,1.6560,1.6270,1
5.3486,1.6077,1.6536,1.6278,1
5.3486,1.6037,1.6512,1.6295,1
5.3486,1.5932,1.6665,1.6286,1
5.3486,1.5892,1.6657,1.6375,1
5.3486,1.5916,1.6641,1.6448,1
5.3486,1.5964,1.6593,1.6432,1
5.3486,1.6012,1.6585,1.6399,1
5.3486,1.6012,1.6609,1.6448,1
5.3486,1.6012,1.6601,1.6407,1
5.3486,1.6021,1.6641,1.6423,1
5.3486,1.6085,1.6657,1.6391,1
5.3486,1.6077,1.6681,1.6399,1
5.3486,1.6149,1.6528,1.6351,1
5.3486,1.6125,1.6520,1.6335,1
5.3486,1.6101,1.6520,1.6351,1
5.3486,1.6045,1.6536,1.6456,1
5.3486,1.5996,1.6601,1.6448,1
5.3486,1.5956,1.6617,1.6359,1
5.3486,1.6004,1.6560,1.6375,1
5.3486,1.6021,1.6472,1.6472,1
5.3486,1.6029,1.6528,1.6528,1
5.3486,1.6004,1.6504,1.6448,1
5.3486,1.6012,1.6496,1.6456,1
5.3486,1.6077,1.6464,1.6536,1
5.3486,1.6190,1.6496,1.6520,1
5.3486,1.6182,1.6496,1.6407,1
5.3486,1.6222,1.6512,1.6423,1
5.3486,1.6278,1.6440,1.6496,1
5.3486,1.6270,1.6423,1.6472,1
5.3486,1.6222,1.6415,1.6415,1
5.3486,1.6166,1.6464,1.6391,1
5.3486,1.6166,1.6448,1.6472,1
5.3486,1.6109,1.6415,1.6472,1
5.3486,1.6117,1.6399,1.6343,1
5.3486,1.6029,1.6432,1.6375,1
5.3486,1.6045,1.6512,1.6391,1
5.3486,1.6012,1.6472,1.6383,1
5.3486,1.5972,1.6488,1.6407,1
5.3486,1.6012,1.6496,1.6472,1
5.3486,1.6061,1.6560,1.6512,1
5.3486,1.6141,1.6488,1.6528,1
5.3486,1.6214,1.6488,1.6520,1
5.3486,1.6262,1.6480,1.6536,1
5.3486,1.6246,1.6746,1.6544,1
5.3486,1.6278,1.6673,1.6536,1
5.3486,1.6303,1.6601,1.6536,1
5.3486,1.6319,1.6552,1.6544,1
5.3486,1.6359,1.6544,1.6528,1
5.3486,1.6262,1.6520,1.6488,1
5.3486,1.6198,1.6504,1.6456,1
5.3486,1.6182,1.6512,1.6456,1
5.3486,1.6093,1.6512,1.6448,1
5.3486,1.6101,1.6552,1.6415,1
5.3486,1.6117,1.6319,1.6456,1
5.3486,1.6141,1.6335,1.6440,1
5.3486,1.6166,1.6383,1.6351,1
5.3486,1.6190,1.6456,1.6327,1
5.3486,1.6198,1.6480,1.6295,1
5.3486,1.6214,1.6601,1.6262,1
5.3486,1.6270,1.6617,1.6270,1
5.3486,1.6214,1.6633,1.6286,1
5.3486,1.6230,1.6601,1.6295,1
5.3486,1.6182,1.6585,1.6391,1
5.3486,1.6125,1.6665,1.6367,1
5.3486,1.6093,1.6665,1.6327,1
5.3486,1.6069,1.6617,1.6456,1
5.3486,1.6037,1.6601,1.6440,1
5.3486,1.6045,1.6609,1.6472,1
5.3486,1.6061,1.6593,1.6440,1
5.3486,1.6045,1.6528,1.6448,1
5.3486,1.6093,1.6448,1.6399,1
5.3486,1.6166,1.6536,1.6351,1
5.3486,1.6222,1.6577,1.6343,1
5.3486,1.6222,1.6496,1.6359,1
5.3486,1.6198,1.6488,1.6407,1
5.3486,1.6174,1.6488,1.6375,1
5.3486,1.6206,1.6488,1.6432,1
5.3486,1.6141,1.6504,1.6383,1
5.3486,1.6174,1.6448,1.6488,1
5.3486,1.6190,1.6440,1.6440,1
5.3486,1.6109,1.6528,1.6448,1
5.3486,1.6029,1.6456,1.6440,1
5.3486,1.5972,1.6423,1.6432,1
5.3486,1.6012,1.6448,1.6407,1
5.3486,1.6069,1.6440,1.6415,1
5.3486,1.6109,1.6480,1.6472,1
5.3486,1.6101,1.6504,1.6448,1
5.3486,1.6133,1.6423,1.6577,1
5.3486,1.6125,1.6391,1.6488,1
5.3486,1.6117,1.6423,1.6488,1
5.3486,1.6141,1.6423,1.6536,1
5.3486,1.6182,1.6504,1.6544,1
5.3486,1.6149,1.6464,1.6536,1
5.3486,1.6093,1.6432,1.6528,1
5.3486,1.6012,1.6464,1.6488,1
5.3486,1.5980,1.6520,1.6456,1
5.3486,1.5940,1.6504,1.6480,1
5.3486,1.5956,1.6520,1.6383,1
5.3486,1.5932,1.6528,1.6415,1
5.3486,1.5916,1.6512,1.6440,1
5.3486,1.5940,1.6440,1.6383,1
5.3486,1.5988,1.6432,1.6415,1
5.3486,1.6029,1.6512,1.6423,1
5.3486,1.6053,1.6577,1.6480,1
5.3486,1.6158,1.6625,1.6520,1
5.3486,1.6198,1.6585,1.6552,1
5.3486,1.6262,1.6568,1.6504,1
5.3486,1.6190,1.6577,1.6528,1
5.3486,1.6238,1.6625,1.6504,1
5.3486,1.6262,1.6528,1.6504,1
5.3486,1.6158,1.6544,1.6544,1
5.3486,1.6077,1.6560,1.6560,1
5.3486,1.6133,1.6585,1.6552,1
5.3486,1.6133,1.6617,1.6536,1
5.3486,1.6053,1.6560,1.6536,1
5.3486,1.6045,1.6568,1.6496,1
5.3486,1.6045,1.6552,1.6536,1
5.3486,1.6093,1.6520,1.6520,1
5.3486,1.6085,1.6496,1.6560,1
5.3486,1.6012,1.6601,1.6544,1
5.3486,1.6093,1.6649,1.6504,1
5.3486,1.6125,1.6641,1.6488,1
5.3486,1.6125,1.6601,1.6480,1
5.3486,1.6093,1.6560,1.6448,1
5.3980,1.6085,1.6577,1.6399,1
5.3980,1.6061,1.6528,1.6520,1
5.3980,1.6061,1.6536,1.6504,1
5.3980,1.6012,1.6560,1.6456,1
5.3980,1.5980,1.6536,1.6432,1
5.3980,1.5996,1.6577,1.6440,1
5.3980,1.6069,1.6593,1.6440,1
5.3980,1.6021,1.6536,1.6423,1
5.3980,1.5972,1.6512,1.6440,1
5.3987,1.6069,1.6488,1.6472,1
5.3987,1.6125,1.6520,1.6520,1
5.3987,1.6101,1.6512,1.6423,1
5.3987,1.6045,1.6520,1.6399,1
5.3987,1.6101,1.6528,1.6536,1
5.3987,1.6141,1.6601,1.6601,1
5.3987,1.6149,1.6617,1.6585,1
5.3987,1.6133,1.6609,1.6633,1
5.3987,1.6190,1.6665,1.6633,1
5.3987,1.6214,1.6585,1.6641,1
5.3987,1.6141,1.6568,1.6649,1
5.3987,1.6141,1.6512,1.6714,1
5.3987,1.6182,1.6456,1.6633,1
5.3987,1.6166,1.6480,1.6609,1
5.3987,1.6109,1.6536,1.6496,1
5.3987,1.6093,1.6568,1.6560,1
5.3987,1.6101,1.6536,1.6568,1
5.3987,1.6190,1.6520,1.6536,1
5.3987,1.6182,1.6456,1.6536,1
5.3987,1.6222,1.6536,1.6520,1
5.3987,1.6206,1.6504,1.6520,1
5.3987,1.6117,1.6496,1.6440,1
5.3987,1.6133,1.6585,1.6520,1
5.3987,1.6190,1.6520,1.6609,1
5.3987,1.6182,1.6544,1.6625,1
5.3987,1.6158,1.6512,1.6552,1
5.3987,1.6182,1.6464,1.6544,1
5.3987,1.6053,1.6520,1.6577,1
5.3987,1.6029,1.6480,1.6552,1
5.3987,1.5956,1.6440,1.6544,1
5.3987,1.5940,1.6472,1.6536,1
5.3987,1.6045,1.6528,1.6528,1
5.3987,1.6004,1.6528,1.6520,1
5.3987,1.5964,1.6593,1.6504,1
5.3987,1.6053,1.6552,1.6488,1
5.3987,1.6069,1.6512,1.6432,1
5.3987,1.6061,1.6552,1.6448,1
5.3987,1.6061,1.6399,1.6432,1
5.3987,1.6101,1.6456,1.6496,1
5.3987,1.6149,1.6520,1.6552,1
5.3987,1.6158,1.6472,1.6544,1
5.3987,1.6085,1.6480,1.6560,1
5.3987,1.6085,1.6504,1.6544,1
5.3987,1.6069,1.6512,1.6536,1
5.3987,1.5972,1.6464,1.6560,1
5.3987,1.5964,1.6504,1.6601,1
5.3987,1.5956,1.6464,1.6552,1
5.3987,1.5948,1.5948,1.6568,1
5.3987,1.5867,1.5988,1.6496,1
5.3987,1.5867,1.5956,1.6609,1
5.3987,1.5940,1.6109,1.6585,1
5.3987,1.5908,1.6842,1.6560,1
5.3987,1.5884,1.6754,1.6544,1
5.3987,1.5819,1.6714,1.6488,1
5.3987,1.5908,1.6665,1.6464,1
5.3987,1.5843,1.6568,1.6456,1
5.3987,1.5827,1.6536,1.6423,1
5.3987,1.5771,1.7060,1.6440,1
5.3987,1.5795,1.7028,1.6464,1
5.3987,1.5803,1.7044,1.6278,1
5.3987,1.5771,1.6979,1.6286,1
5.3987,1.5843,1.6190,1.6254,1
5.3987,1.5867,1.6214,1.6303,1
5.3987,1.5932,1.6182,1.6367,1
5.3987,1.5859,1.6270,1.6448,1
5.3987,1.5779,1.6222,1.6480,1
5.3987,1.5803,1.6214,1.6520,1
5.3987,1.5867,1.6327,1.6480,1
5.3987,1.5859,1.6335,1.6472,1
5.3987,1.5819,1.6327,1.6536,1
5.3987,1.5884,1.6327,1.6593,1
5.3987,1.5827,1.6399,1.6705,1
5.3987,1.5843,1.6415,1.6649,1
5.3987,1.4989,1.6456,1.6625,1
5.3987,1.5126,1.6448,1.6601,1
5.3987,1.5255,1.6544,1.6520,1
5.3987,1.5287,1.6641,1.6504,1
5.3987,1.5327,1.6601,1.6504,1
5.3987,1.5376,1.6641,1.6536,1
5.3987,1.5392,1.6544,1.6504,1
5.3987,1.5319,1.6464,1.6464,1
5.3987,1.5352,1.6407,1.6343,1
5.3987,1.5360,1.6399,1.6423,1
5.3987,1.6206,1.6367,1.6440,1
5.3987,1.6037,1.6359,1.6415,1
5.3987,1.6166,1.6375,1.6488,1
5.3987,1.6077,1.6359,1.6528,1
5.3987,1.5948,1.6423,1.6528,1
5.3987,1.5851,1.6351,1.6536,1
5.3987,1.5827,1.6440,1.6528,1
5.3987,1.5763,1.6480,1.6536,1
5.4480,1.5682,1.6391,1.6552,1
5.4485,1.5593,1.6423,1.6496,1
5.4485,1.5650,1.6407,1.6520,1
5.4485,1.5650,1.6383,1.6552,1
5.4485,1.5561,1.6383,1.6552,1
5.4485,1.5585,1.6391,1.6544,1
5.4485,1.5634,1.6327,1.6577,1
5.4485,1.5666,1.6327,1.6528,1
5.4485,1.5626,1.6295,1.6552,1
5.4485,1.5690,1.6270,1.6568,1
5.4485,1.5795,1.6367,1.6577,1
5.4485,1.5859,1.6383,1.6633,1
5.4485,1.5835,1.6367,1.6617,1
5.4485,1.5940,1.6448,1.6577,1
5.4485,1.5924,1.6432,1.6536,1
5.4485,1.5908,1.6415,1.6528,1
5.4485,1.5940,1.6383,1.6488,1
5.4485,1.5996,1.6327,1.6464,1
5.4485,1.6061,1.6335,1.6568,1
5.4485,1.6069,1.6351,1.6512,1
5.4485,1.6053,1.6351,1.6536,1
5.4485,1.6029,1.6399,1.6536,1
5.4485,1.6029,1.6480,1.6520,1
5.4485,1.5980,1.6448,1.6528,1
5.4485,1.6045,1.6649,1.6577,1
5.4485,1.6101,1.6577,1.6601,1
5.4485,1.6149,1.6536,1.6633,1
5.4485,1.6125,1.6625,1.6705,1
5.4485,1.6093,1.6552,1.6536,1
5.4485,1.6125,1.6536,1.6593,1
5.4485,1.6029,1.6520,1.6536,1
5.4485,1.6012,1.6440,1.6488,1
5.4485,1.6012,1.6407,1.6488,1
5.4485,1.6045,1.6375,1.6448,1
5.4485,1.5972,1.6166,1.6391,1
5.4485,1.5940,1.6190,1.6383,1
5.4485,1.5875,1.6206,1.6367,1
5.4485,1.5851,1.6214,1.6383,1
5.4485,1.5835,1.6295,1.6415,1
5.4485,1.5763,1.6383,1.6407,1
5.4485,1.5819,1.6407,1.6472,1
5.4485,1.5875,1.6440,1.6488,1
5.4485,1.5859,1.6367,1.6496,1
5.4485,1.5803,1.6335,1.6528,1
5.4485,1.5811,1.6327,1.6568,1
5.4485,1.5892,1.6311,1.6544,1
5.4485,1.5892,1.6351,1.6568,1
5.4485,1.5900,1.6391,1.6568,1
5.4485,1.5964,1.6456,1.6568,1
5.4485,1.6037,1.6407,1.6536,1
5.4485,1.6037,1.6399,1.6456,1
5.4485,1.5988,1.6359,1.6456,1
5.4485,1.6004,1.6383,1.6423,1
5.4485,1.5988,1.6399,1.6399,1
5.4485,1.5956,1.6367,1.6480,1
5.4485,1.5875,1.6415,1.6472,1
5.4485,1.5908,1.6432,1.6432,1
5.4485,1.5972,1.6343,1.6415,1
5.4485,1.5908,1.6270,1.6367,1
5.4485,1.5851,1.6206,1.6383,1
5.4485,1.5924,1.6182,1.6456,1
5.4485,1.6012,1.6174,1.6456,1
5.4485,1.6738,1.6174,1.6496,1
5.4485,1.6673,1.6198,1.6496,1
5.4485,1.6665,1.6311,1.6440,1
5.4485,1.6585,1.6295,1.6423,1
5.4485,1.6488,1.6206,1.6496,1
5.4485,1.6383,1.6278,1.6432,1
5.4485,1.6391,1.6238,1.6488,1
5.4485,1.6375,1.6262,1.6480,1
5.4485,1.6206,1.6262,1.6448,1
5.4485,1.6174,1.6222,1.6955,1
5.4485,1.5473,1.6214,1.6915,1
5.4485,1.5553,1.6230,1.7270,1
5.4485,1.5593,1.6214,1.7149,1
5.4485,1.5714,1.6246,1.7116,1
5.4485,1.5843,1.6335,1.7068,1
5.4485,1.5932,1.6278,1.7108,1
5.4485,1.5916,1.6286,1.7012,1
5.4485,1.5940,1.6278,1.6971,1
5.4485,1.6101,1.6238,1.7004,1
5.4485,1.6085,1.6335,1.6520,1
5.4485,1.6053,1.6295,1.6568,1
5.4485,1.6101,1.6343,1.6190,1
5.4485,1.6117,1.6351,1.6319,1
5.4485,1.6053,1.6270,1.6415,1
5.4485,1.5875,1.6254,1.6488,1
5.4485,1.5851,1.6230,1.6496,1
5.4485,1.5884,1.6278,1.6609,1
5.4485,1.5851,1.6270,1.6665,1
5.4485,1.5787,1.6343,1.6689,1
5.4485,1.5811,1.6351,1.6714,1
5.4485,1.5787,1.6448,1.6770,1
5.4485,1.5747,1.6391,1.6818,1
5.4485,1.5690,1.6359,1.6778,1
5.4485,1.5706,1.6375,1.6762,1
5.4485,1.5811,1.6319,1.6697,1
5.4485,1.5738,1.6351,1.6738,1
5.4485,1.5698,1.6375,1.6722,1
5.4485,1.5714,1.6343,1.6818,1
5.4969,1.5714,1.6391,1.6810,1
5.4969,1.5626,1.6383,1.6746,1
5.4969,1.5682,1.6375,1.6577,1
5.4969,1.5658,1.6367,1.6528,1
5.4969,1.5642,1.6343,1.6512,1
5.4969,1.5634,1.6335,1.6423,1
5.4969,1.5650,1.6399,1.6456,1
5.4969,1.5698,1.6440,1.6343,1
5.4969,1.5714,1.6407,1.6262,1
5.4969,1.5650,1.6512,1.6182,1
5.4969,1.5416,1.6593,1.6125,1
5.4969,1.5521,1.6544,1.6141,1
5.4969,1.5481,1.6536,1.6254,1
5.4969,1.5529,1.6480,1.6295,1
5.4969,1.5593,1.6472,1.6327,1
5.4969,1.5658,1.6488,1.6472,1
5.4969,1.5650,1.6480,1.6407,1
5.4969,1.5642,1.6472,1.6423,1
5.4969,1.5674,1.6528,1.6730,1
5.4969,1.5747,1.6496,1.6689,1
5.4969,1.5988,1.6391,1.6705,1
5.4969,1.5956,1.6399,1.6641,1
5.4969,1.5932,1.6270,1.6593,1
5.4969,1.5900,1.6319,1.6560,1
5.4969,1.5795,1.6319,1.6544,1
5.4969,1.5755,1.6319,1.6528,1
5.4969,1.5835,1.6351,1.6552,1
5.4969,1.5851,1.6383,1.6560,1
5.4969,1.5811,1.6391,1.6230,1
5.4969,1.5763,1.6367,1.6262,1
5.4969,1.5763,1.6343,1.6335,1
5.4969,1.5738,1.6351,1.6407,1
5.4969,1.5771,1.6448,1.6440,1
5.4969,1.5738,1.6423,1.6464,1
5.4969,1.5803,1.6480,1.6496,1
5.4969,1.5787,1.6528,1.6423,1
5.4969,1.5706,1.6480,1.6456,1
5.4969,1.5714,1.6464,1.6488,1
5.4969,1.5747,1.6432,1.6544,1
5.4969,1.5763,1.6351,1.6577,1
5.4969,1.5819,1.6053,1.6568,1
5.4969,1.5827,1.6053,1.6649,1
5.4969,1.5835,1.6085,1.6609,1
5.4969,1.5859,1.6166,1.6601,1
5.4969,1.5843,1.6198,1.6593,1
5.4969,1.5867,1.6222,1.6593,1
5.4969,1.5835,1.6399,1.6544,1
5.4969,1.5819,1.6391,1.6488,1
5.4969,1.5771,1.6270,1.6504,1
5.4969,1.5811,1.6319,1.6278,1
5.4969,1.5787,1.6504,1.6262,1
5.4969,1.5795,1.6536,1.6222,1
5.4969,1.5787,1.6504,1.6254,1
5.4969,1.5795,1.6440,1.6270,1
5.4969,1.5851,1.6432,1.6278,1
5.4969,1.5851,1.6359,1.6270,1
5.4969,1.5900,1.6190,1.6327,1
5.4969,1.5924,1.6133,1.6391,1
5.4969,1.5964,1.6133,1.6359,1
5.4969,1.5916,1.6141,1.6568,1
5.4969,1.5859,1.6270,1.6496,1
5.4969,1.5875,1.6286,1.6448,1
5.4969,1.5827,1.6319,1.6464,1
5.4969,1.5835,1.6359,1.6472,1
5.4969,1.5827,1.6270,1.6464,1
5.4969,1.5843,1.6278,1.6472,1
5.4969,1.5851,1.6254,1.6480,1
5.4969,1.5843,1.6198,1.6480,1
5.4969,1.5843,1.6270,1.6496,1
5.4969,1.5867,1.6327,1.6480,1
5.4969,1.5908,1.6335,1.6544,1
5.4969,1.5843,1.6327,1.6544,1
5.4969,1.5859,1.6303,1.6520,1
5.4969,1.5867,1.6295,1.6593,1
5.4969,1.5843,1.6375,1.6568,1
5.4969,1.5763,1.6335,1.6560,1
5.4969,1.5747,1.6311,1.6552,1
5.4969,1.5819,1.6399,1.6568,1
5.4969,1.5892,1.6367,1.6593,1
5.4969,1.5843,1.6343,1.7028,1
5.4969,1.5819,1.6375,1.6963,1
5.4969,1.5859,1.6319,1.6907,1
5.4969,1.5884,1.6351,1.6883,1
5.4969,1.5859,1.6303,1.6883,1
5.4969,1.5859,1.6286,1.6988,1
5.4969,1.5916,1.6335,1.6947,1
5.4969,1.5908,1.6383,1.6883,1
5.4969,1.5835,1.6359,1.6842,1
5.4969,1.5787,1.6456,1.6794,1
5.4969,1.5827,1.6496,1.6407,1
5.4969,1.5843,1.6383,1.6440,1
5.4969,1.5859,1.6448,1.6480,1
5.4969,1.5900,1.6391,1.6585,1
5.4969,1.5908,1.6375,1.6601,1
5.4969,1.6133,1.6343,1.6601,1
5.4969,1.6133,1.6311,1.6641,1
5.4969,1.6295,1.6432,1.6722,1
5.4969,1.6278,1.6520,1.6786,1
5.5331,1.6238,1.6512,1.6810,1
5.5331,1.6206,1.6488,1.6770,1
5.5331,1.6254,1.6536,1.6786,1
5.5331,1.6238,1.6472,1.6842,1
5.5331,1.6206,1.6488,1.6746,1
5.5331,1.6206,1.6504,1.6633,1
5.5331,1.6037,1.6512,1.6544,1
5.5331,1.6029,1.6593,1.6512,1
5.5331,1.5892,1.6536,1.6512,1
5.5331,1.5892,1.6488,1.6496,1
5.5331,1.6004,1.6464,1.6496,1
5.5331,1.6045,1.6415,1.6520,1
5.5331,1.6012,1.6383,1.6488,1
5.5331,1.6004,1.6399,1.6415,1
