Zaman (sn),CH1 (V),CH2 (V),Label
5.9700,1.6859,1.6367,1
5.9700,1.6778,1.6238,1
5.9700,1.6826,1.6286,1
5.9700,1.6810,1.6246,1
5.9700,1.6762,1.6286,1
5.9700,1.6746,1.6230,1
5.9700,1.6762,1.6117,1
5.9700,1.6762,1.5996,1
5.9700,1.6714,1.6085,1
5.9700,1.6730,1.6174,1
5.9700,1.6681,1.6214,1
5.9700,1.6665,1.6238,1
5.9700,1.6673,1.6117,1
5.9700,1.6722,1.6141,1
5.9700,1.6794,1.6262,1
5.9700,1.6754,1.6343,1
5.9700,1.6762,1.6383,1
5.9700,1.6762,1.6512,1
5.9700,1.6754,1.6496,1
5.9700,1.6794,1.6528,1
5.9700,1.6802,1.6625,1
5.9700,1.6818,1.6649,1
5.9700,1.6786,1.6593,1
5.9700,1.6794,1.6560,1
5.9700,1.6722,1.6327,1
5.9700,1.6746,1.6407,1
5.9700,1.6738,1.6568,1
5.9700,1.6762,1.6536,1
5.9700,1.6730,1.6544,1
5.9700,1.6705,1.6472,1
5.9700,1.6738,1.6303,1
5.9700,1.6738,1.6190,1
5.9700,1.6689,1.6230,1
5.9700,1.6689,1.6238,1
5.9700,1.6762,1.6311,1
5.9700,1.6746,1.6254,1
5.9700,1.6762,1.6359,1
5.9700,1.6794,1.6367,1
5.9700,1.6802,1.6319,1
5.9700,1.6762,1.6222,1
5.9700,1.6754,1.6190,1
5.9700,1.6770,1.6512,1
5.9700,1.6778,1.6528,1
5.9700,1.6738,1.6585,1
5.9700,1.6754,1.6544,1
5.9700,1.6722,1.6585,1
5.9700,1.6867,1.6448,1
5.9700,1.6810,1.6367,1
5.9700,1.6851,1.6488,1
5.9700,1.6859,1.6512,1
5.9700,1.6786,1.6528,1
5.9700,1.6818,1.6335,1
5.9700,1.6818,1.6295,1
5.9700,1.6818,1.6295,1
5.9700,1.6778,1.6488,1
5.9700,1.6826,1.6399,1
5.9700,1.6633,1.6343,1
5.9700,1.6625,1.6480,1
5.9700,1.6697,1.6407,1
5.9700,1.6738,1.6544,1
5.9700,1.6802,1.6722,1
5.9700,1.6770,1.6593,1
5.9700,1.6818,1.6568,1
5.9700,1.6834,1.6480,1
5.9700,1.6834,1.6375,1
5.9700,1.6867,1.6448,1
5.9700,1.6907,1.6544,1
5.9700,1.6883,1.6432,1
5.9700,1.6818,1.6520,1
5.9700,1.6818,1.6423,1
5.9700,1.6794,1.6278,1
5.9700,1.6786,1.6311,1
5.9700,1.6778,1.6399,1
5.9700,1.6794,1.6448,1
5.9700,1.6786,1.6359,1
5.9700,1.6722,1.6303,1
5.9700,1.6754,1.6109,1
5.9700,1.6802,1.6045,1
5.9700,1.6794,1.5900,1
5.9700,1.6794,1.6117,1
5.9700,1.6794,1.6061,1
6.0318,1.6762,1.6319,1
6.0318,1.6746,1.6311,1
6.0318,1.6730,1.6343,1
6.0318,1.6738,1.6448,1
6.0318,1.6746,1.6536,1
6.0318,1.6673,1.6625,1
6.0318,1.6689,1.6722,1
6.0318,1.6681,1.6689,1
6.0318,1.6657,1.6383,1
6.0318,1.6714,1.6488,1
6.0318,1.6730,1.6270,1
6.0318,1.6738,1.6230,1
6.0318,1.6730,1.6367,1
6.0318,1.6714,1.6278,1
6.0318,1.6681,1.6246,1
6.0318,1.6665,1.6158,1
6.0318,1.6681,1.6045,1
6.0318,1.6705,1.6045,1
6.0318,1.6697,1.6149,1
6.0318,1.6633,1.6117,1
6.0318,1.6649,1.6141,1
6.0318,1.6641,1.6190,1
6.0318,1.6641,1.6133,1
6.0318,1.6689,1.6230,1
6.0318,1.6730,1.6166,1
6.0318,1.6714,1.6246,1
6.0318,1.6665,1.6480,1
6.0318,1.6448,1.6520,1
6.0318,1.6480,1.6496,1
6.0318,1.6528,1.6504,1
6.0318,1.6544,1.6496,1
6.0318,1.6560,1.6480,1
6.0318,1.6528,1.6407,1
6.0318,1.6512,1.6367,1
6.0318,1.6536,1.6448,1
6.0318,1.6544,1.6536,1
6.0318,1.6577,1.6367,1
6.0318,1.6762,1.6448,1
6.0318,1.6738,1.6432,1
6.0318,1.6689,1.6295,1
6.0318,1.6625,1.6190,1
6.0318,1.6665,1.6158,1
6.0318,1.6689,1.6174,1
6.0318,1.6649,1.6190,1
6.0318,1.6665,1.6158,1
6.0318,1.6673,1.6093,1
6.0318,1.6657,1.6149,1
6.0318,1.6657,1.6069,1
6.0318,1.6714,1.6141,1
6.0318,1.6568,1.6311,1
6.0318,1.6585,1.6214,1
6.0318,1.6577,1.6174,1
6.0318,1.6625,1.6117,1
6.0318,1.6633,1.6117,1
6.0318,1.6601,1.6101,1
6.0318,1.6657,1.6029,1
6.0318,1.6681,1.6012,1
6.0318,1.6681,1.6085,1
6.0318,1.6649,1.6141,1
6.0318,1.6818,1.5956,1
6.0318,1.6657,1.6174,1
6.0318,1.6625,1.6222,1
6.0318,1.6705,1.6206,1
6.0318,1.6754,1.6222,1
6.0318,1.6738,1.6222,1
6.0318,1.6754,1.6149,1
6.0318,1.6770,1.6077,1
6.0318,1.6786,1.5980,1
6.0318,1.6738,1.5924,1
6.0318,1.6705,1.6109,1
6.0318,1.6915,1.6053,1
6.0318,1.6891,1.6109,1
6.0318,1.6778,1.6117,1
6.0318,1.6778,1.6109,1
6.0318,1.6778,1.6166,1
6.0318,1.6681,1.6278,1
6.0318,1.6673,1.6311,1
6.0318,1.6657,1.6327,1
6.0318,1.6689,1.6141,1
6.0318,1.6697,1.6190,1
6.0318,1.6705,1.6222,1
6.0318,1.6705,1.6198,1
6.0318,1.6681,1.6278,1
6.0318,1.6714,1.6230,1
6.0318,1.6754,1.6149,1
6.0318,1.6778,1.6222,1
6.0318,1.6738,1.6230,1
6.0318,1.6786,1.6254,1
6.0318,1.6794,1.6440,1
6.0318,1.6786,1.6319,1
6.0318,1.6770,1.6222,1
6.0318,1.6794,1.6206,1
6.0318,1.6810,1.6190,1
6.0318,1.6730,1.6214,1
6.0318,1.6722,1.6286,1
6.0318,1.6754,1.6149,1
6.0318,1.6746,1.6238,1
6.0318,1.6730,1.6158,1
6.0318,1.6746,1.6101,1
6.0318,1.6730,1.6141,1
6.0318,1.6730,1.6149,1
6.0318,1.6786,1.6198,1
6.0318,1.6794,1.6286,1
6.0318,1.6770,1.6198,1
6.0318,1.6754,1.6053,1
6.0318,1.6754,1.6029,1
6.0318,1.6738,1.5964,1
6.0318,1.6681,1.6093,1
6.0318,1.6714,1.6093,1
6.0318,1.6754,1.6093,1
6.0318,1.6738,1.6206,1
6.0318,1.6689,1.6149,1
6.0318,1.6705,1.6045,1
6.0318,1.6722,1.6166,1
6.0318,1.6681,1.6295,1
6.0318,1.6697,1.6552,1
6.0318,1.6746,1.6496,1
6.0318,1.6778,1.6464,1
6.0318,1.6705,1.6448,1
6.0318,1.6730,1.6391,1
6.0801,1.6714,1.6448,1
6.0801,1.6681,1.6423,1
6.0801,1.6705,1.6343,1
6.0801,1.6738,1.6230,1
6.0801,1.6770,1.6190,1
6.0801,1.6794,1.6045,1
6.0801,1.6818,1.5972,1
6.0801,1.6802,1.5980,1
6.0801,1.6794,1.6029,1
6.0801,1.6794,1.6101,1
6.0801,1.6810,1.6004,1
6.0801,1.6810,1.6101,1
6.0801,1.6770,1.6133,1
6.0801,1.6778,1.6295,1
6.0801,1.6746,1.6093,1
6.0801,1.6593,1.6045,1
6.0801,1.6577,1.6343,1
6.0801,1.6609,1.6351,1
6.0801,1.6641,1.6440,1
6.0801,1.6633,1.6504,1
6.0801,1.6697,1.6488,1
6.0801,1.6681,1.6399,1
6.0801,1.6681,1.6351,1
6.0801,1.6665,1.6230,1
6.0801,1.6730,1.6536,1
6.0801,1.6802,1.6504,1
6.0801,1.6786,1.6246,1
6.0801,1.6794,1.6238,1
6.0801,1.6786,1.6085,1
6.0801,1.6746,1.5996,1
6.0801,1.6714,1.5980,1
6.0801,1.6754,1.6012,1
6.0801,1.6754,1.6077,1
6.0801,1.6730,1.6141,1
6.0801,1.6714,1.6029,1
6.0801,1.6762,1.6077,1
6.0801,1.6754,1.6222,1
6.0801,1.6738,1.6158,1
6.0801,1.6770,1.6117,1
6.0801,1.6762,1.6093,1
6.0801,1.6722,1.6504,1
6.0801,1.6705,1.6440,1
6.0801,1.6722,1.6399,1
6.0801,1.6714,1.6303,1
6.0801,1.6738,1.6254,1
6.0801,1.6778,1.6222,1
6.0801,1.6770,1.6182,1
6.0801,1.6697,1.6270,1
6.0801,1.6633,1.6319,1
6.0801,1.6665,1.6399,1
6.0801,1.6673,1.5972,1
6.0801,1.6681,1.6230,1
6.0801,1.6689,1.6311,1
6.0801,1.6722,1.6423,1
6.0801,1.6681,1.6577,1
6.0801,1.6665,1.6464,1
6.0801,1.6689,1.6391,1
6.0801,1.6746,1.6295,1
6.0801,1.6754,1.6448,1
6.0801,1.6746,1.6504,1
6.0801,1.6762,1.6488,1
6.0801,1.6754,1.6270,1
6.0801,1.6754,1.6158,1
6.0801,1.6786,1.6174,1
6.0801,1.6762,1.6149,1
6.0801,1.6762,1.6359,1
6.0801,1.6778,1.6375,1
6.0801,1.6802,1.6423,1
6.0801,1.6802,1.6335,1
6.0801,1.6842,1.6246,1
6.0801,1.6851,1.6230,1
6.0801,1.6851,1.6246,1
6.0801,1.6834,1.6303,1
6.0801,1.6875,1.6190,1
6.0801,1.6842,1.6004,1
6.0801,1.6754,1.5956,1
6.0801,1.6705,1.5972,1
6.0801,1.6714,1.6012,1
6.0801,1.6754,1.5875,1
6.0801,1.6681,1.5779,1
6.0801,1.6722,1.5747,1
6.0801,1.6697,1.5738,1
6.0801,1.6738,1.5835,1
6.0801,1.6665,1.5956,1
6.0801,1.6770,1.6117,1
6.0801,1.6802,1.6158,1
6.0801,1.6810,1.6174,1
6.0801,1.6810,1.6133,1
6.0801,1.6851,1.6214,1
6.0801,1.6842,1.6359,1
6.0801,1.6794,1.6415,1
6.0801,1.6867,1.6480,1
6.0801,1.6818,1.6407,1
6.0801,1.6818,1.6295,1
6.0801,1.6786,1.6214,1
6.0801,1.6818,1.6029,1
6.1280,1.6834,1.5988,1
6.1280,1.6818,1.5964,1
6.1280,1.6794,1.6149,1
6.1280,1.6810,1.6085,1
6.1280,1.6786,1.6021,1
6.1280,1.6786,1.5988,1
6.1280,1.6810,1.5996,1
6.1280,1.6786,1.5964,1
6.1280,1.6762,1.5996,1
6.1280,1.6794,1.6222,1
6.1280,1.6746,1.6343,1
6.1280,1.6714,1.6359,1
6.1280,1.6689,1.6125,1
6.1280,1.6770,1.6222,1
6.1280,1.6802,1.6472,1
6.1280,1.6770,1.6488,1
6.1280,1.6778,1.6440,1
6.1280,1.6794,1.6512,1
6.1280,1.6794,1.6496,1
6.1280,1.6770,1.6399,1
6.1280,1.6834,1.6432,1
6.1280,1.6842,1.6432,1
6.1280,1.6818,1.6601,1
6.1280,1.6794,1.6496,1
6.1280,1.6802,1.6254,1
6.1280,1.6778,1.6206,1
6.1280,1.6778,1.6295,1
6.1280,1.6794,1.6303,1
6.1280,1.6786,1.6343,1
6.1280,1.6770,1.6327,1
6.1280,1.6770,1.6278,1
6.1280,1.6778,1.6311,1
6.1280,1.6778,1.6303,1
6.1280,1.6738,1.6270,1
6.1280,1.6754,1.6528,1
6.1280,1.6786,1.6528,1
6.1280,1.6778,1.6407,1
6.1280,1.6802,1.6327,1
6.1280,1.6778,1.6303,1
6.1280,1.6778,1.6432,1
6.1280,1.6818,1.6343,1
6.1280,1.6851,1.6198,1
6.1280,1.6842,1.5956,1
6.1280,1.6810,1.5956,1
6.1280,1.6810,1.5730,1
6.1280,1.6786,1.5682,1
6.1280,1.6746,1.5755,1
6.1280,1.6722,1.5908,1
6.1280,1.6786,1.5932,1
6.1280,1.6786,1.5634,1
6.1280,1.6730,1.5650,1
6.1280,1.6714,1.5819,1
6.1280,1.6714,1.5956,1
6.1280,1.6746,1.6037,1
6.1280,1.6762,1.6149,1
6.1280,1.6778,1.6246,1
6.1280,1.6802,1.6149,1
6.1280,1.6770,1.6069,1
6.1280,1.6754,1.6101,1
6.1280,1.6738,1.6206,1
6.1280,1.6730,1.6149,1
6.1280,1.6738,1.6174,1
6.1280,1.6762,1.6029,1
6.1280,1.6754,1.6004,1
6.1280,1.6705,1.5900,1
6.1280,1.6722,1.5795,1
6.1280,1.6714,1.5859,1
6.1280,1.6730,1.5892,1
6.1280,1.6754,1.5908,1
6.1280,1.6770,1.5900,1
6.1280,1.6770,1.6012,1
6.1280,1.6746,1.5900,1
6.1280,1.6738,1.6061,1
6.1280,1.6770,1.6037,1
6.1280,1.6786,1.6045,1
6.1280,1.6746,1.5916,1
6.1280,1.6778,1.6021,1
6.1280,1.6746,1.5940,1
6.1280,1.6705,1.5916,1
6.1280,1.6722,1.6069,1
6.1280,1.6746,1.6053,1
6.1280,1.6730,1.6029,1
6.1280,1.6730,1.5835,1
6.1280,1.6746,1.5819,1
6.1280,1.6754,1.5964,1
6.1280,1.6730,1.6166,1
6.1280,1.6697,1.6093,1
6.1280,1.6738,1.6158,1
6.1280,1.6746,1.6133,1
6.1280,1.6673,1.6012,1
6.1280,1.6730,1.6012,1
6.1280,1.6705,1.6101,1
6.1280,1.6689,1.6351,1
6.1280,1.6705,1.6383,1
6.1280,1.6705,1.6214,1
6.1280,1.6681,1.6222,1
6.1757,1.6665,1.6117,1
6.1757,1.6730,1.6012,1
6.1757,1.6697,1.6012,1
6.1757,1.6705,1.5956,1
6.1757,1.6641,1.6061,1
6.1757,1.6689,1.6093,1
6.1757,1.6673,1.5964,1
6.1757,1.6593,1.5964,1
6.1757,1.6617,1.6093,1
6.1757,1.6641,1.6012,1
6.1757,1.6641,1.5964,1
6.1757,1.6625,1.6093,1
6.1757,1.6665,1.6085,1
6.1757,1.6633,1.6166,1
6.1757,1.6617,1.6109,1
6.1757,1.6625,1.6101,1
6.1757,1.6641,1.6133,1
6.1757,1.6649,1.6029,1
6.1757,1.6448,1.5875,1
6.1757,1.6536,1.6029,1
6.1757,1.6585,1.6141,1
6.1757,1.6512,1.6174,1
6.1757,1.6552,1.6077,1
6.1757,1.6617,1.6053,1
6.1757,1.6585,1.5980,1
6.1757,1.6520,1.5908,1
6.1757,1.6552,1.5956,1
6.1757,1.6568,1.6149,1
6.1757,1.6689,1.6077,1
6.1757,1.6673,1.6029,1
6.1757,1.6633,1.6093,1
6.1757,1.6633,1.6109,1
6.1757,1.6568,1.6166,1
6.1757,1.6568,1.6343,1
6.1757,1.6609,1.6407,1
6.1757,1.6617,1.6367,1
6.1757,1.6593,1.6343,1
6.1757,1.6593,1.6166,1
6.1757,1.6577,1.6351,1
6.1757,1.6520,1.6238,1
6.1757,1.6560,1.6190,1
6.1757,1.6593,1.6077,1
6.1757,1.6601,1.6012,1
6.1757,1.6609,1.5916,1
6.1757,1.6593,1.5859,1
6.1757,1.6585,1.5980,1
6.1757,1.6577,1.5972,1
6.1757,1.6593,1.6053,1
6.1757,1.6617,1.6061,1
6.1757,1.6585,1.6182,1
6.1757,1.6560,1.6077,1
6.1757,1.6560,1.6085,1
6.1757,1.6552,1.6367,1
6.1757,1.6536,1.6367,1
6.1757,1.6577,1.6375,1
6.1757,1.6609,1.6222,1
6.1757,1.6601,1.6238,1
6.1757,1.6609,1.6278,1
6.1757,1.6649,1.6238,1
6.1757,1.6673,1.6278,1
6.1757,1.6657,1.6432,1
6.1757,1.6714,1.6432,1
6.1757,1.6705,1.6141,1
6.1757,1.6673,1.5980,1
6.1757,1.6689,1.6045,1
6.1757,1.6697,1.6214,1
6.1757,1.6681,1.6222,1
6.1757,1.6657,1.6206,1
6.1757,1.6625,1.6230,1
6.1757,1.6609,1.6222,1
6.1757,1.6633,1.6141,1
6.1757,1.6568,1.6166,1
6.1757,1.6601,1.6423,1
6.1757,1.6617,1.6472,1
6.1757,1.6617,1.6472,1
6.1757,1.6641,1.6327,1
6.1757,1.6657,1.6359,1
6.1757,1.6609,1.6222,1
6.1757,1.6649,1.6198,1
6.1757,1.6697,1.6037,1
6.1757,1.6851,1.6069,1
6.1757,1.6826,1.6053,1
6.1757,1.6851,1.5851,1
6.1757,1.6859,1.5875,1
6.1757,1.6810,1.5827,1
6.1757,1.6754,1.5972,1
6.1757,1.6810,1.5964,1
6.1757,1.6794,1.6029,1
6.1757,1.6738,1.6085,1
6.1757,1.6754,1.6174,1
6.1757,1.6577,1.6117,1
6.1757,1.6560,1.6246,1
6.1757,1.6536,1.6496,1
6.1757,1.6577,1.6464,1
6.1757,1.6617,1.6415,1
6.2249,1.6633,1.6351,1
6.2249,1.6665,1.6295,1
6.2249,1.6722,1.6343,1
6.2249,1.6746,1.6319,1
6.2249,1.6697,1.6399,1
6.2249,1.6738,1.6480,1
6.2249,1.6810,1.6295,1
6.2249,1.6826,1.6149,1
6.2249,1.6714,1.6158,1
6.2249,1.6714,1.6230,1
6.2249,1.6681,1.6206,1
6.2249,1.6633,1.6311,1
6.2249,1.6673,1.6254,1
6.2249,1.6689,1.6085,1
6.2249,1.6681,1.5996,1
6.2249,1.6641,1.6037,1
6.2249,1.6593,1.6166,1
6.2249,1.6560,1.6166,1
6.2249,1.6625,1.6278,1
6.2249,1.6625,1.6472,1
6.2249,1.6625,1.6432,1
6.2249,1.6633,1.6327,1
6.2249,1.6609,1.6448,1
6.2249,1.6738,1.6593,1
6.2249,1.6697,1.6552,1
6.2249,1.6657,1.6577,1
6.2249,1.6697,1.6423,1
6.2249,1.6697,1.6327,1
6.2249,1.6705,1.6327,1
6.2249,1.6681,1.6125,1
6.2249,1.6802,1.6230,1
6.2249,1.6762,1.6254,1
6.2249,1.6738,1.6190,1
6.2249,1.6633,1.6166,1
6.2249,1.6673,1.6262,1
6.2249,1.6697,1.6182,1
6.2249,1.6705,1.6246,1
6.2249,1.6722,1.6246,1
6.2249,1.6705,1.6222,1
6.2249,1.6722,1.6133,1
6.2249,1.6665,1.5964,1
6.2249,1.6649,1.6012,1
6.2249,1.6665,1.6093,1
6.2249,1.6665,1.6190,1
6.2249,1.6714,1.6158,1
6.2249,1.6714,1.6158,1
6.2249,1.6705,1.6101,1
6.2249,1.6641,1.6101,1
6.2249,1.6633,1.6182,1
6.2249,1.6633,1.6295,1
6.2249,1.6633,1.6407,1
6.2249,1.6681,1.6335,1
6.2249,1.6641,1.6278,1
6.2249,1.6577,1.6303,1
6.2249,1.6577,1.6254,1
6.2249,1.6544,1.6206,1
6.2249,1.6504,1.6246,1
6.2249,1.6585,1.6359,1
6.2249,1.6609,1.6270,1
6.2249,1.6585,1.6133,1
6.2249,1.6560,1.6166,1
6.2249,1.6593,1.6133,1
6.2249,1.6625,1.6149,1
6.2249,1.6649,1.6109,1
6.2249,1.6609,1.6190,1
6.2249,1.6665,1.6367,1
6.2249,1.6665,1.6278,1
6.2249,1.6641,1.6383,1
6.2249,1.6633,1.6432,1
6.2249,1.6657,1.6536,1
6.2249,1.6609,1.6512,1
6.2249,1.6585,1.6738,1
6.2249,1.6593,1.6585,1
6.2249,1.6649,1.6552,1
6.2249,1.6625,1.6577,1
6.2249,1.6641,1.6464,1
6.2249,1.6649,1.6593,1
6.2249,1.6617,1.6415,1
6.2249,1.6601,1.6246,1
6.2249,1.6649,1.6222,1
6.2249,1.6681,1.6238,1
6.2249,1.6665,1.6182,1
6.2249,1.6697,1.6149,1
6.2249,1.6673,1.6141,1
6.2249,1.6665,1.5924,1
6.2249,1.6681,1.5964,1
6.2249,1.6722,1.5956,1
6.2249,1.6754,1.5996,1
6.2249,1.6770,1.6166,1
6.2249,1.6754,1.6295,1
6.2249,1.6746,1.6335,1
6.2249,1.6730,1.6077,1
6.2249,1.6657,1.6206,1
6.2249,1.6689,1.6166,1
6.2249,1.6730,1.6327,1
6.2249,1.6689,1.6303,1
6.2249,1.6665,1.6295,1
6.2249,1.6689,1.6327,1
6.2249,1.6818,1.6198,1
6.2726,1.6786,1.6085,1
6.2726,1.6778,1.6012,1
6.2726,1.6770,1.6125,1
6.2726,1.6810,1.6093,1
6.2726,1.6786,1.6053,1
6.2726,1.6762,1.5916,1
6.2726,1.6746,1.5932,1
6.2726,1.6746,1.5940,1
6.2726,1.6770,1.5738,1
6.2726,1.6633,1.5900,1
6.2726,1.6625,1.5988,1
6.2726,1.6649,1.6077,1
6.2726,1.6673,1.6262,1
6.2726,1.6657,1.6335,1
6.2726,1.6633,1.6278,1
6.2726,1.6665,1.6464,1
6.2726,1.6673,1.6335,1
6.2726,1.6689,1.6254,1
6.2726,1.6689,1.6351,1
6.2726,1.6762,1.6246,1
6.2726,1.6786,1.6158,1
6.2726,1.6746,1.6077,1
6.2726,1.6794,1.5964,1
6.2726,1.6794,1.5996,1
6.2726,1.6786,1.6045,1
6.2726,1.6802,1.6077,1
6.2726,1.6794,1.6238,1
6.2726,1.6762,1.6295,1
6.2726,1.6705,1.6327,1
6.2726,1.6673,1.6319,1
6.2726,1.6689,1.6278,1
6.2726,1.6681,1.6391,1
6.2726,1.6665,1.6504,1
6.2726,1.6738,1.6568,1
6.2726,1.6673,1.6802,1
6.2726,1.6633,1.6657,1
6.2726,1.6689,1.6560,1
6.2726,1.6681,1.6464,1
6.2726,1.6681,1.6351,1
6.2726,1.6649,1.6351,1
6.2726,1.6649,1.6367,1
6.2726,1.6665,1.6222,1
6.2726,1.6633,1.6101,1
6.2726,1.6593,1.6037,1
6.2726,1.6657,1.5867,1
6.2726,1.6625,1.5988,1
6.2726,1.6568,1.6061,1
6.2726,1.6609,1.6246,1
6.2726,1.6617,1.6335,1
6.2726,1.6625,1.6311,1
6.2726,1.6657,1.6303,1
6.2726,1.6633,1.6367,1
6.2726,1.6625,1.6311,1
6.2726,1.6681,1.6230,1
6.2726,1.6681,1.6093,1
6.2726,1.6665,1.6021,1
6.2726,1.6673,1.6109,1
6.2726,1.6657,1.5988,1
6.2726,1.6641,1.6061,1
6.2726,1.6609,1.6174,1
6.2726,1.6552,1.6198,1
6.2726,1.6568,1.6214,1
6.2726,1.6568,1.6230,1
6.2726,1.6472,1.6206,1
6.2726,1.6512,1.6375,1
6.2726,1.6609,1.6254,1
6.2726,1.6601,1.6045,1
6.2726,1.6633,1.6029,1
6.2726,1.6657,1.5884,1
6.2726,1.6673,1.5859,1
6.2726,1.6649,1.5964,1
6.2726,1.6665,1.5811,1
6.2726,1.6714,1.5827,1
6.2726,1.6722,1.5819,1
6.2726,1.6681,1.5755,1
6.2726,1.6657,1.5827,1
6.2726,1.6641,1.5916,1
6.2726,1.6609,1.5964,1
6.2726,1.6633,1.6141,1
6.2726,1.6641,1.5948,1
6.2726,1.6641,1.5875,1
6.2726,1.6665,1.5924,1
6.2726,1.6657,1.5932,1
6.2726,1.6649,1.6029,1
6.2726,1.6665,1.6085,1
6.2726,1.6665,1.6061,1
6.2726,1.6714,1.6012,1
6.2726,1.6705,1.5916,1
6.2726,1.6681,1.5932,1
6.2726,1.6705,1.6109,1
6.2726,1.6730,1.6109,1
6.2726,1.6697,1.6125,1
6.2726,1.6714,1.6037,1
6.2726,1.6689,1.6004,1
6.2726,1.6673,1.6093,1
6.3201,1.6665,1.6117,1
6.3201,1.6577,1.6117,1
6.3201,1.6552,1.6158,1
6.3201,1.6544,1.6021,1
6.3201,1.6585,1.5980,1
6.3201,1.6577,1.5859,1
6.3201,1.6593,1.5908,1
6.3201,1.6593,1.6021,1
6.3201,1.6633,1.6037,1
6.3201,1.6633,1.5867,1
6.3201,1.6633,1.5932,1
6.3201,1.6722,1.6037,1
6.3201,1.6714,1.6061,1
6.3201,1.6665,1.6069,1
6.3201,1.6633,1.6053,1
6.3201,1.6641,1.6190,1
6.3201,1.6625,1.6198,1
6.3201,1.6609,1.6254,1
6.3201,1.6665,1.6343,1
6.3201,1.6673,1.6504,1
6.3201,1.6625,1.6496,1
6.3201,1.6641,1.6464,1
6.3201,1.6673,1.6391,1
6.3201,1.6705,1.6496,1
6.3201,1.6673,1.6488,1
6.3201,1.6714,1.6351,1
6.3201,1.6714,1.6335,1
6.3201,1.6689,1.6254,1
6.3201,1.6633,1.6125,1
6.3201,1.6641,1.5884,1
6.3201,1.6665,1.5948,1
6.3201,1.6673,1.5795,1
6.3201,1.6705,1.5867,1
6.3201,1.6738,1.5956,1
6.3201,1.6714,1.5996,1
6.3201,1.6665,1.6158,1
6.3201,1.6697,1.6133,1
6.3201,1.6673,1.6158,1
6.3201,1.6633,1.6085,1
6.3201,1.6657,1.6125,1
6.3201,1.6681,1.6101,1
6.3201,1.6665,1.6262,1
6.3201,1.6673,1.6311,1
6.3201,1.6697,1.6109,1
6.3201,1.6714,1.6109,1
6.3201,1.6689,1.6045,1
6.3201,1.6722,1.6109,1
6.3201,1.6738,1.6085,1
6.3201,1.6762,1.6166,1
6.3201,1.6738,1.6351,1
6.3201,1.6730,1.6246,1
6.3201,1.6689,1.6109,1
6.3201,1.6641,1.6149,1
6.3201,1.6641,1.6166,1
6.3201,1.6681,1.6101,1
6.3201,1.6657,1.6141,1
6.3201,1.6593,1.6141,1
6.3201,1.6625,1.6109,1
6.3201,1.6609,1.6093,1
6.3201,1.6593,1.6077,1
6.3201,1.6593,1.5940,1
6.3201,1.6609,1.5932,1
6.3201,1.6609,1.5875,1
6.3201,1.6560,1.5996,1
6.3201,1.6568,1.6012,1
6.3201,1.6552,1.6012,1
6.3201,1.6577,1.5964,1
6.3201,1.6609,1.5988,1
6.3201,1.6641,1.6037,1
6.3201,1.6641,1.5932,1
6.3201,1.6609,1.6133,1
6.3201,1.6625,1.6278,1
6.3201,1.6633,1.6351,1
6.3201,1.6625,1.6198,1
6.3201,1.6665,1.6238,1
6.3201,1.6681,1.6133,1
6.3201,1.6649,1.6093,1
6.3201,1.6568,1.6174,1
6.3201,1.6617,1.6303,1
6.3201,1.6601,1.6464,1
6.3201,1.6601,1.6423,1
6.3201,1.6617,1.6246,1
6.3201,1.6625,1.6133,1
6.3201,1.6625,1.6351,1
6.3201,1.6544,1.6391,1
6.3201,1.6504,1.6456,1
6.3201,1.6528,1.6472,1
6.3201,1.6544,1.6343,1
6.3201,1.6552,1.6141,1
6.3201,1.6520,1.5988,1
6.3201,1.6552,1.6053,1
6.3201,1.6512,1.6198,1
6.3201,1.6512,1.6198,1
6.3201,1.6528,1.6198,1
6.3201,1.6552,1.6222,1
6.3598,1.6681,1.6319,1
6.3598,1.6649,1.6520,1
6.3598,1.6673,1.6673,1
6.3598,1.6633,1.6826,1
6.3598,1.6649,1.6512,1
6.3598,1.6601,1.6488,1
6.3598,1.6601,1.6512,1
6.3598,1.6657,1.6496,1
6.3598,1.6633,1.6367,1
6.3598,1.6577,1.6254,1
6.3598,1.6528,1.6021,1
6.3598,1.6577,1.5819,1
6.3598,1.6593,1.5779,1
6.3598,1.6560,1.5738,1
6.3598,1.6657,1.6149,1
6.3598,1.6689,1.6117,1
6.3598,1.6665,1.6093,1
6.3598,1.6585,1.6141,1
6.3598,1.6834,1.6045,1
6.3598,1.6859,1.6101,1
6.3598,1.6810,1.6295,1
6.3598,1.6778,1.6351,1
6.3598,1.6722,1.6407,1
6.3598,1.6730,1.6295,1
6.3598,1.6665,1.6198,1
6.3598,1.6730,1.6270,1
6.3598,1.6794,1.6270,1
6.3598,1.6826,1.6286,1
6.3598,1.6585,1.6182,1
6.3598,1.6657,1.6061,1
6.3598,1.6705,1.5972,1
6.3598,1.6714,1.5948,1
6.3598,1.6770,1.5787,1
6.3598,1.6826,1.5940,1
6.3598,1.6818,1.5908,1
6.3598,1.6802,1.5755,1
6.3598,1.6754,1.5819,1
6.3598,1.6770,1.5747,1
6.3598,1.6770,1.5884,1
6.3598,1.6770,1.5948,1
6.3598,1.6818,1.6029,1
6.3598,1.6794,1.6085,1
6.3598,1.6770,1.6158,1
6.3598,1.6762,1.6085,1
6.3598,1.6722,1.6319,1
6.3598,1.6657,1.6496,1
6.3598,1.6730,1.6399,1
6.3598,1.6738,1.6375,1
6.3598,1.6722,1.6351,1
6.3598,1.6665,1.6383,1
6.3598,1.6641,1.6391,1
6.3598,1.6649,1.6254,1
6.3598,1.6633,1.6238,1
6.3598,1.6641,1.6262,1
6.3598,1.6722,1.6101,1
6.3598,1.6730,1.6061,1
6.3598,1.6657,1.6190,1
6.3598,1.6657,1.6190,1
6.3598,1.6705,1.6109,1
6.3598,1.6689,1.6141,1
6.3598,1.6657,1.6117,1
6.3598,1.6722,1.6270,1
6.3598,1.6673,1.6319,1
6.3598,1.6641,1.6399,1
6.3598,1.6649,1.6488,1
6.3598,1.6625,1.6504,1
6.3598,1.6633,1.6343,1
6.3598,1.6609,1.6327,1
6.3598,1.6625,1.6432,1
6.3598,1.6689,1.6488,1
6.3598,1.6697,1.6448,1
6.3598,1.6705,1.6375,1
6.3598,1.6746,1.6286,1
6.3598,1.6689,1.6206,1
6.3598,1.6697,1.6149,1
6.3598,1.6851,1.6053,1
6.3598,1.6826,1.6149,1
6.3598,1.6834,1.6246,1
6.3598,1.6818,1.6343,1
6.3598,1.6770,1.6359,1
6.3598,1.6778,1.6391,1
6.3598,1.6730,1.6319,1
6.3598,1.6754,1.6399,1
6.4144,1.6794,1.6343,1
6.4144,1.6770,1.6214,1
6.4144,1.6681,1.6278,1
6.4144,1.6730,1.6311,1
6.4144,1.6730,1.6295,1
6.4144,1.6689,1.6238,1
6.4144,1.6722,1.6085,1
6.4144,1.6714,1.6077,1
6.4144,1.6697,1.6198,1
6.4144,1.6665,1.6149,1
6.4144,1.6657,1.6174,1
6.4144,1.6673,1.6174,1
6.4144,1.6665,1.6166,1
6.4144,1.6714,1.6101,1
6.4144,1.6722,1.6061,1
6.4144,1.6681,1.6085,1
6.4144,1.6657,1.6158,1
6.4144,1.6665,1.6069,1
6.4144,1.6665,1.5972,1
6.4144,1.6673,1.5964,1
6.4144,1.6714,1.5996,1
6.4144,1.6673,1.6214,1
6.4144,1.6625,1.6125,1
6.4144,1.6577,1.6125,1
6.4144,1.6601,1.6133,1
6.4144,1.6665,1.6182,1
6.4144,1.6641,1.6286,1
6.4144,1.6673,1.6375,1
6.4144,1.6673,1.6423,1
6.4144,1.6657,1.6359,1
6.4144,1.6625,1.6286,1
6.4144,1.6673,1.6149,1
6.4144,1.6649,1.6214,1
6.4144,1.6633,1.6174,1
6.4144,1.6649,1.6182,1
6.4144,1.6609,1.6077,1
6.4144,1.6585,1.5956,1
6.4144,1.6552,1.5900,1
6.4144,1.6577,1.5972,1
6.4144,1.6617,1.6029,1
6.4144,1.6585,1.6117,1
6.4144,1.6641,1.6295,1
6.4144,1.6681,1.6303,1
6.4144,1.6665,1.6319,1
6.4144,1.6625,1.6343,1
6.4144,1.6665,1.6383,1
6.4144,1.6697,1.6440,1
6.4144,1.6681,1.6512,1
6.4144,1.6697,1.6432,1
6.4144,1.6689,1.6456,1
6.4144,1.6714,1.6738,1
6.4144,1.6641,1.6568,1
6.4144,1.6649,1.6496,1
6.4144,1.6649,1.6585,1
6.4144,1.6625,1.6448,1
6.4144,1.6714,1.6480,1
6.4144,1.6730,1.6464,1
6.4144,1.6730,1.6415,1
6.4144,1.6673,1.6472,1
6.4144,1.6681,1.6391,1
6.4144,1.6689,1.5940,1
6.4144,1.6665,1.6037,1
6.4144,1.6697,1.6109,1
6.4144,1.6705,1.6061,1
6.4144,1.6738,1.6238,1
6.4144,1.6609,1.6117,1
6.4144,1.6625,1.6190,1
6.4144,1.6633,1.6254,1
6.4144,1.6641,1.6278,1
6.4144,1.6633,1.6311,1
6.4144,1.6617,1.6480,1
6.4144,1.6617,1.6343,1
6.4144,1.6577,1.6319,1
6.4144,1.6625,1.6359,1
6.4144,1.6617,1.6214,1
6.4144,1.6617,1.6254,1
6.4144,1.6601,1.6166,1
6.4144,1.6649,1.6061,1
6.4144,1.6641,1.6101,1
6.4144,1.6633,1.6286,1
6.4144,1.6673,1.6230,1
6.4144,1.6697,1.6278,1
6.4144,1.6689,1.6311,1
6.4144,1.6665,1.6141,1
6.4144,1.6681,1.6254,1
6.4144,1.6673,1.6270,1
6.4144,1.6625,1.6480,1
6.4144,1.6681,1.6464,1
6.4144,1.6689,1.6367,1
6.4144,1.6673,1.6214,1
6.4144,1.6649,1.6214,1
6.4144,1.6649,1.6254,1
6.4144,1.6641,1.6367,1
6.4144,1.6617,1.6448,1
6.4144,1.6633,1.6448,1
6.4144,1.6657,1.6440,1
6.4144,1.6633,1.6351,1
6.4144,1.6552,1.6375,1
6.4144,1.6593,1.6351,1
6.4144,1.6568,1.6327,1
6.4144,1.6552,1.6230,1
6.4144,1.6609,1.6125,1
6.4144,1.6609,1.5988,1
6.4144,1.6593,1.6270,1
6.4144,1.6609,1.6383,1
6.4144,1.6617,1.6432,1
6.4549,1.6633,1.6399,1
6.4549,1.6617,1.6496,1
6.4549,1.6641,1.6528,1
6.4549,1.6673,1.6504,1
6.4549,1.6657,1.6722,1
6.4549,1.6609,1.6851,1
6.4549,1.6641,1.6673,1
6.4549,1.6617,1.6415,1
6.4549,1.6568,1.6270,1
6.4549,1.6609,1.6295,1
6.4549,1.6617,1.6117,1
6.4549,1.6585,1.6021,1
6.4549,1.6585,1.5948,1
6.4549,1.6641,1.5980,1
6.4549,1.6633,1.5843,1
6.4549,1.6568,1.5481,1
6.4549,1.6552,1.5650,1
6.4549,1.6577,1.5730,1
6.4549,1.6560,1.5787,1
6.4549,1.6552,1.5795,1
6.4549,1.6585,1.5867,1
6.4549,1.6649,1.5875,1
6.4549,1.6585,1.5932,1
6.4549,1.6609,1.5908,1
6.4549,1.6601,1.5980,1
6.4549,1.6649,1.6423,1
6.4549,1.6649,1.6343,1
6.4549,1.6649,1.6295,1
6.4549,1.6665,1.6166,1
6.4549,1.6593,1.6109,1
6.4549,1.6617,1.6149,1
6.4549,1.6593,1.6125,1
6.4549,1.6568,1.6133,1
6.4549,1.6528,1.6053,1
6.4549,1.6617,1.6262,1
6.4549,1.6617,1.6012,1
6.4549,1.6601,1.6037,1
6.4549,1.6657,1.5988,1
6.4549,1.6665,1.6012,1
6.4549,1.6665,1.6077,1
6.4549,1.6641,1.6109,1
6.4549,1.6673,1.6270,1
6.4549,1.6714,1.6286,1
6.4549,1.6681,1.6286,1
6.4549,1.6657,1.6109,1
6.4549,1.6673,1.6262,1
6.4549,1.6665,1.6399,1
6.4549,1.6593,1.6520,1
6.4549,1.6641,1.6593,1
6.4549,1.6617,1.6601,1
6.4549,1.6601,1.6496,1
6.4549,1.6601,1.6238,1
6.4549,1.6609,1.6166,1
6.4549,1.6625,1.6254,1
6.4549,1.6601,1.6270,1
6.4549,1.6649,1.6415,1
6.4549,1.6657,1.6544,1
6.4549,1.6657,1.6415,1
6.4549,1.6681,1.6415,1
6.4549,1.6705,1.6407,1
6.4549,1.6697,1.6520,1
6.4549,1.6617,1.6617,1
6.4549,1.6617,1.6649,1
6.4549,1.6593,1.6705,1
6.4549,1.6593,1.6617,1
6.4549,1.6560,1.6440,1
6.4549,1.6633,1.6286,1
6.4549,1.6609,1.6246,1
6.4549,1.6520,1.6222,1
6.4549,1.6593,1.6238,1
6.4549,1.6601,1.6222,1
6.4549,1.6617,1.6295,1
6.4549,1.6609,1.6270,1
6.4549,1.6601,1.6222,1
6.4549,1.6568,1.6149,1
6.4549,1.6512,1.6174,1
6.4549,1.6432,1.6149,1
6.4549,1.6456,1.6286,1
6.4549,1.6472,1.6278,1
6.4549,1.6423,1.6238,1
6.4549,1.6448,1.6303,1
6.4549,1.6456,1.6303,1
6.4549,1.6432,1.6359,1
6.4549,1.6472,1.6327,1
6.4549,1.6512,1.6415,1
6.5093,1.6520,1.6383,1
6.5093,1.6536,1.6238,1
6.5093,1.6552,1.6206,1
6.5093,1.6512,1.6214,1
6.5093,1.6480,1.6343,1
6.5093,1.6488,1.6158,1
6.5093,1.6480,1.5972,1
6.5093,1.6456,1.5900,1
6.5093,1.6536,1.5980,1
6.5093,1.6528,1.5795,1
6.5093,1.6544,1.5529,1
6.5093,1.6520,1.5771,1
6.5093,1.6585,1.5819,1
6.5093,1.6657,1.5892,1
6.5093,1.6617,1.5763,1
6.5093,1.6512,1.5900,1
6.5093,1.6552,1.6053,1
6.5093,1.6625,1.6117,1
6.5093,1.6488,1.6053,1
6.5093,1.6504,1.6190,1
6.5093,1.6520,1.6407,1
6.5093,1.6512,1.6286,1
6.5098,1.6448,1.6182,1
6.5098,1.6472,1.6206,1
6.5098,1.6552,1.6109,1
6.5098,1.6601,1.5980,1
6.5098,1.6593,1.5972,1
6.5098,1.6633,1.5924,1
6.5098,1.6593,1.5875,1
6.5098,1.6568,1.5892,1
6.5098,1.6568,1.6012,1
6.5098,1.6609,1.5932,1
6.5098,1.6617,1.5916,1
6.5098,1.6568,1.5682,1
6.5098,1.6585,1.5827,1
6.5098,1.6544,1.6004,1
6.5098,1.6343,1.6029,1
6.5098,1.6311,1.6101,1
6.5098,1.6399,1.6174,1
6.5098,1.6399,1.6214,1
6.5098,1.6391,1.6061,1
6.5098,1.6391,1.6069,1
6.5098,1.6367,1.6133,1
6.5098,1.6335,1.6359,1
6.5098,1.6351,1.6343,1
6.5098,1.6593,1.6182,1
6.5098,1.6738,1.6149,1
6.5098,1.6689,1.6166,1
6.5098,1.6673,1.6190,1
6.5098,1.6609,1.6254,1
6.5098,1.6585,1.6303,1
6.5098,1.6577,1.6375,1
6.5098,1.6601,1.6319,1
6.5098,1.6609,1.6190,1
6.5098,1.6544,1.6133,1
6.5098,1.6343,1.6190,1
6.5098,1.6351,1.6311,1
6.5098,1.6343,1.6286,1
6.5098,1.6359,1.6278,1
6.5098,1.6423,1.6190,1
6.5098,1.6440,1.6230,1
6.5098,1.6440,1.6343,1
6.5098,1.6496,1.6609,1
6.5098,1.6472,1.6633,1
6.5098,1.6504,1.6730,1
6.5098,1.6528,1.6730,1
6.5098,1.6560,1.6657,1
6.5098,1.6528,1.6504,1
6.5098,1.6568,1.6512,1
6.5098,1.6585,1.6383,1
6.5098,1.6568,1.6319,1
6.5098,1.6544,1.6149,1
6.5098,1.6520,1.6061,1
6.5098,1.6617,1.6117,1
6.5098,1.6625,1.6061,1
6.5098,1.6609,1.6117,1
6.5098,1.6625,1.6085,1
6.5098,1.6697,1.6190,1
6.5098,1.6641,1.6158,1
6.5098,1.6617,1.6319,1
6.5098,1.6665,1.6351,1
6.5098,1.6681,1.6367,1
6.5098,1.6633,1.6021,1
6.5098,1.6617,1.6069,1
6.5098,1.6593,1.6037,1
6.5098,1.6536,1.5851,1
6.5098,1.6528,1.5819,1
6.5098,1.6552,1.5948,1
6.5098,1.6560,1.5859,1
6.5098,1.6536,1.5956,1
6.5098,1.6536,1.6238,1
6.5098,1.6552,1.6214,1
6.5098,1.6520,1.6238,1
6.5098,1.6488,1.6077,1
6.5098,1.6544,1.6166,1
6.5098,1.6601,1.6254,1
6.5098,1.6577,1.6343,1
6.5098,1.6544,1.6238,1
6.5098,1.6552,1.6214,1
6.5098,1.6544,1.6069,1
6.5098,1.6536,1.5795,1
6.5098,1.6568,1.5948,1
6.5098,1.6633,1.6061,1
6.5098,1.6609,1.6133,1
6.5098,1.6577,1.6004,1
6.5498,1.6609,1.5940,1
6.5498,1.6609,1.5787,1
6.5498,1.6593,1.5698,1
6.5498,1.6601,1.5916,1
6.5498,1.6633,1.6254,1
6.5498,1.6593,1.6166,1
6.5498,1.6552,1.5940,1
6.5498,1.6528,1.5932,1
6.5498,1.6536,1.5964,1
6.5498,1.6496,1.6101,1
6.5498,1.6480,1.6295,1
6.5498,1.6512,1.6359,1
6.5498,1.6512,1.6432,1
6.5498,1.6488,1.6270,1
6.5498,1.6528,1.6045,1
6.5498,1.6536,1.6198,1
6.5498,1.6520,1.6399,1
6.5498,1.6544,1.6593,1
6.5498,1.6585,1.6496,1
6.5498,1.6625,1.6335,1
6.5498,1.6577,1.6053,1
6.5498,1.6601,1.5988,1
6.5498,1.6585,1.6069,1
6.5498,1.6577,1.6174,1
6.5498,1.6560,1.6149,1
6.5498,1.6617,1.6166,1
6.5498,1.6593,1.5980,1
6.5498,1.6552,1.5835,1
6.5498,1.6552,1.5835,1
6.5498,1.6520,1.5988,1
6.5498,1.6480,1.6254,1
6.5498,1.6464,1.6278,1
6.5498,1.6520,1.6222,1
6.5498,1.6520,1.6238,1
6.5498,1.6456,1.6190,1
6.5498,1.6440,1.6037,1
6.5498,1.6504,1.6149,1
6.5498,1.6488,1.6029,1
6.5498,1.6488,1.6069,1
6.5498,1.6552,1.5956,1
6.5498,1.6633,1.5972,1
6.5498,1.6601,1.5972,1
6.5498,1.6585,1.5948,1
6.5498,1.6585,1.5819,1
6.5498,1.6609,1.5827,1
6.5498,1.6520,1.5916,1
6.5498,1.6544,1.5867,1
6.5498,1.6504,1.6029,1
6.5498,1.6488,1.6141,1
6.5498,1.6464,1.6093,1
6.5498,1.6456,1.6101,1
6.5498,1.6480,1.6158,1
6.5498,1.6456,1.6133,1
6.5498,1.6496,1.6214,1
6.5498,1.6512,1.6206,1
6.5498,1.6552,1.6069,1
6.5498,1.6512,1.6141,1
6.5498,1.6577,1.6125,1
6.5498,1.6544,1.6101,1
6.5498,1.6528,1.6230,1
6.5498,1.6585,1.6133,1
6.5498,1.6560,1.6174,1
6.5498,1.6528,1.6286,1
6.5498,1.6520,1.6335,1
6.5498,1.6552,1.6311,1
6.5498,1.6544,1.6367,1
6.5498,1.6536,1.6432,1
6.5498,1.6552,1.6407,1
6.5498,1.6593,1.6343,1
6.5498,1.6560,1.6359,1
6.5498,1.6504,1.6440,1
6.5498,1.6528,1.6367,1
6.5498,1.6560,1.6295,1
6.5498,1.6512,1.6246,1
6.5498,1.6544,1.6262,1
6.5498,1.6585,1.6351,1
6.5498,1.6552,1.6311,1
6.5498,1.6560,1.6448,1
6.5498,1.6593,1.6536,1
6.5498,1.6625,1.6480,1
6.5498,1.6593,1.6504,1
6.5498,1.6625,1.6440,1
6.5498,1.6625,1.6423,1
6.5498,1.6625,1.6552,1
6.5498,1.6536,1.6448,1
6.5498,1.6601,1.6456,1
6.5498,1.6633,1.6319,1
6.5498,1.6593,1.6230,1
6.6042,1.6568,1.6319,1
6.6042,1.6577,1.6295,1
6.6042,1.6593,1.6295,1
6.6042,1.6536,1.6488,1
6.6042,1.6577,1.6440,1
6.6042,1.6609,1.6375,1
6.6042,1.6609,1.6577,1
6.6042,1.6585,1.6657,1
6.6042,1.6593,1.6730,1
6.6042,1.6593,1.6714,1
6.6042,1.6544,1.6649,1
6.6042,1.6560,1.6657,1
6.6042,1.6577,1.6665,1
6.6042,1.6568,1.6585,1
6.6042,1.6560,1.6560,1
6.6042,1.6577,1.6496,1
6.6042,1.6568,1.6488,1
6.6042,1.6536,1.6198,1
6.6042,1.6544,1.6254,1
6.6042,1.6560,1.6101,1
6.6042,1.6585,1.6053,1
6.6042,1.6560,1.6198,1
6.6042,1.6601,1.6166,1
6.6042,1.6641,1.6222,1
6.6042,1.6601,1.6335,1
6.6042,1.6609,1.6359,1
6.6042,1.6633,1.6295,1
6.6042,1.6625,1.6496,1
6.6042,1.6601,1.6432,1
6.6042,1.6641,1.6915,1
6.6042,1.6609,1.6915,1
6.6042,1.6585,1.6794,1
6.6042,1.6552,1.6681,1
6.6042,1.6560,1.6585,1
6.6042,1.6568,1.6480,1
6.6042,1.6568,1.6609,1
6.6042,1.6617,1.6689,1
6.6042,1.6641,1.6617,1
6.6042,1.6609,1.6697,1
6.6042,1.6593,1.6375,1
6.6042,1.6641,1.6311,1
6.6042,1.6641,1.6375,1
6.6042,1.6617,1.6488,1
6.6042,1.6633,1.6512,1
6.6042,1.6641,1.6649,1
6.6042,1.6609,1.6528,1
6.6042,1.6560,1.6488,1
6.6042,1.6617,1.6488,1
6.6042,1.6633,1.6472,1
6.6042,1.6609,1.6480,1
6.6042,1.6625,1.6577,1
6.6042,1.6641,1.6601,1
6.6042,1.6625,1.6528,1
6.6042,1.6593,1.6512,1
6.6042,1.6609,1.6544,1
6.6042,1.6568,1.6633,1
6.6042,1.6568,1.6826,1
6.6042,1.6568,1.6810,1
6.6042,1.6585,1.6778,1
6.6042,1.6552,1.6609,1
6.6042,1.6520,1.6512,1
6.6042,1.6552,1.6335,1
6.6042,1.6585,1.6311,1
6.6042,1.6568,1.6432,1
6.6042,1.6593,1.6464,1
6.6042,1.6617,1.6343,1
6.6042,1.6577,1.6093,1
6.6042,1.6536,1.6206,1
6.6042,1.6585,1.6286,1
6.6042,1.6585,1.6391,1
6.6042,1.6560,1.6415,1
6.6042,1.6560,1.6552,1
6.6042,1.6577,1.6754,1
6.6042,1.6617,1.6714,1
6.6042,1.6601,1.6512,1
6.6042,1.6649,1.6528,1
6.6042,1.6746,1.6552,1
6.6042,1.6705,1.6335,1
6.6042,1.6641,1.6311,1
6.6042,1.6681,1.6415,1
6.6042,1.6705,1.6440,1
6.6042,1.6641,1.6407,1
6.6042,1.6657,1.6262,1
6.6042,1.6609,1.6286,1
6.6042,1.6585,1.6423,1
6.6042,1.6577,1.6399,1
6.6042,1.6536,1.6367,1
6.6042,1.6577,1.6472,1
6.6042,1.6633,1.6512,1
6.6042,1.6681,1.6552,1
6.6042,1.6778,1.6552,1
6.6042,1.6770,1.6496,1
6.6042,1.6738,1.6448,1
6.6042,1.6738,1.6286,1
6.6042,1.6705,1.6295,1
6.6042,1.6681,1.6303,1
6.6042,1.6730,1.6311,1
6.6042,1.6697,1.6472,1
6.6042,1.6609,1.6472,1
6.6042,1.6585,1.6391,1
6.6042,1.6536,1.6448,1
6.6042,1.6560,1.6577,1
6.6448,1.6568,1.6641,1
6.6448,1.6641,1.6746,1
6.6448,1.6665,1.6601,1
6.6448,1.6681,1.6601,1
6.6448,1.6665,1.6577,1
6.6448,1.6697,1.6448,1
6.6448,1.6738,1.6375,1
6.6448,1.6665,1.6496,1
6.6448,1.6665,1.6351,1
6.6448,1.6681,1.6383,1
6.6448,1.6705,1.6303,1
6.6448,1.6649,1.6214,1
6.6448,1.6689,1.6311,1
6.6448,1.6681,1.6198,1
6.6448,1.6649,1.6351,1
6.6448,1.6641,1.6375,1
6.6448,1.6617,1.6359,1
6.6448,1.6577,1.6125,1
6.6448,1.6528,1.6174,1
6.6448,1.6544,1.6133,1
6.6448,1.6528,1.6295,1
6.6448,1.6520,1.6375,1
6.6448,1.6528,1.6335,1
6.6448,1.6544,1.6488,1
6.6448,1.6544,1.6407,1
6.6448,1.6528,1.6303,1
6.6448,1.6601,1.6311,1
6.6448,1.6657,1.6343,1
6.6448,1.6649,1.6303,1
6.6448,1.6657,1.6190,1
6.6448,1.6633,1.5972,1
6.6448,1.6601,1.5940,1
6.6448,1.6560,1.6045,1
6.6448,1.6593,1.5835,1
6.6448,1.6552,1.5924,1
6.6448,1.6552,1.6085,1
6.6448,1.6536,1.6141,1
6.6448,1.6560,1.6198,1
6.6448,1.6560,1.6254,1
6.6448,1.6512,1.6286,1
6.6448,1.6528,1.6335,1
6.6448,1.6552,1.6351,1
6.6448,1.6528,1.6254,1
6.6448,1.6585,1.6464,1
6.6448,1.6617,1.6327,1
6.6448,1.6601,1.6262,1
6.6448,1.6585,1.6278,1
6.6448,1.6601,1.6375,1
6.6448,1.6633,1.6399,1
6.6448,1.6617,1.6246,1
6.6448,1.6641,1.6278,1
6.6448,1.6665,1.6133,1
6.6448,1.6657,1.6182,1
6.6448,1.6560,1.6037,1
6.6448,1.6601,1.5940,1
6.6448,1.6568,1.5892,1
6.6448,1.6536,1.5843,1
6.6448,1.6367,1.5747,1
6.6448,1.6432,1.5771,1
6.6448,1.6464,1.6109,1
6.6448,1.6440,1.6206,1
6.6448,1.6448,1.6496,1
6.6448,1.6472,1.6536,1
6.6448,1.6456,1.6665,1
6.6448,1.6456,1.6778,1
6.6448,1.6496,1.6818,1
6.6448,1.6536,1.6786,1
6.6448,1.6681,1.6730,1
6.6448,1.6665,1.6705,1
6.6448,1.6665,1.6375,1
6.6448,1.6665,1.6246,1
6.6448,1.6649,1.6319,1
6.6448,1.6794,1.6222,1
6.6448,1.6794,1.6311,1
6.6448,1.6722,1.6117,1
6.6448,1.6722,1.6166,1
6.6448,1.6722,1.6254,1
6.6448,1.6665,1.6327,1
6.6448,1.6673,1.6375,1
6.6448,1.6681,1.6528,1
6.6448,1.6657,1.6552,1
6.7000,1.6641,1.6351,1
6.7000,1.6552,1.6383,1
6.7000,1.6585,1.6319,1
6.7000,1.6593,1.6512,1
6.7000,1.6593,1.6520,1
6.7000,1.6649,1.6440,1
6.7000,1.6794,1.6423,1
6.7000,1.6722,1.6343,1
6.7000,1.6762,1.6472,1
6.7000,1.6786,1.6448,1
6.7000,1.6754,1.6512,1
6.7000,1.6697,1.6552,1
6.7000,1.6883,1.6488,1
6.7000,1.6891,1.6399,1
6.7000,1.6851,1.6270,1
6.7000,1.6802,1.6391,1
6.7000,1.6705,1.6423,1
6.7000,1.6697,1.6512,1
6.7000,1.6649,1.6399,1
6.7000,1.6681,1.6480,1
6.7000,1.6722,1.6415,1
6.7000,1.6730,1.6375,1
6.7000,1.6552,1.6448,1
6.7000,1.6585,1.6528,1
6.7000,1.6617,1.6722,1
6.7000,1.6609,1.6673,1
6.7000,1.6633,1.6665,1
6.7000,1.6641,1.6544,1
6.7000,1.6665,1.6601,1
6.7000,1.6609,1.6536,1
6.7000,1.6625,1.6448,1
6.7000,1.6609,1.6512,1
6.7000,1.6601,1.6343,1
6.7000,1.6617,1.6214,1
6.7000,1.6633,1.6198,1
6.7000,1.6601,1.6222,1
6.7000,1.6560,1.6198,1
6.7000,1.6601,1.6295,1
6.7000,1.6560,1.6238,1
6.7000,1.6544,1.6367,1
6.7000,1.6528,1.6568,1
6.7000,1.6512,1.6544,1
6.7000,1.6496,1.6665,1
6.7000,1.6456,1.6867,1
6.7000,1.6472,1.6754,1
6.7000,1.6480,1.6625,1
6.7000,1.6464,1.6560,1
6.7000,1.6456,1.6560,1
6.7000,1.6488,1.6472,1
6.7000,1.6504,1.6367,1
6.7000,1.6504,1.6238,1
6.7000,1.6552,1.6295,1
6.7000,1.6520,1.6133,1
6.7000,1.6528,1.5964,1
6.7000,1.6504,1.5884,1
6.7000,1.6544,1.6012,1
6.7000,1.6577,1.6012,1
6.7000,1.6568,1.6004,1
6.7000,1.6601,1.6061,1
6.7000,1.6617,1.6149,1
6.7000,1.6609,1.6222,1
6.7000,1.6585,1.6141,1
6.7000,1.6665,1.6343,1
6.7000,1.6649,1.6399,1
6.7000,1.6641,1.6472,1
6.7000,1.6673,1.6278,1
6.7000,1.6697,1.6351,1
6.7000,1.6673,1.6327,1
6.7000,1.6641,1.6335,1
6.7000,1.6633,1.6158,1
6.7000,1.6625,1.5932,1
6.7000,1.6601,1.5908,1
6.7000,1.6568,1.5827,1
6.7000,1.6593,1.5747,1
6.7000,1.6577,1.5843,1
6.7000,1.6544,1.6101,1
6.7000,1.6577,1.6004,1
6.7000,1.6601,1.5956,1
6.7000,1.6585,1.6012,1
6.7000,1.6601,1.6109,1
6.7000,1.6641,1.6303,1
6.7000,1.6649,1.6262,1
6.7000,1.6657,1.6270,1
6.7000,1.6697,1.6432,1
6.7000,1.6689,1.6391,1
6.7000,1.6665,1.6262,1
6.7000,1.6593,1.6319,1
6.7000,1.6617,1.6303,1
6.7000,1.6625,1.6222,1
6.7000,1.6593,1.6158,1
6.7000,1.6625,1.6109,1
6.7000,1.6657,1.6149,1
6.7000,1.6625,1.6254,1
6.7000,1.6609,1.6295,1
6.7000,1.6665,1.6222,1
6.7000,1.6633,1.6158,1
6.7000,1.6609,1.6012,1
6.7000,1.6617,1.6117,1
6.7000,1.6625,1.6077,1
6.7000,1.6625,1.6198,1
6.7000,1.6577,1.6295,1
6.7000,1.6609,1.6303,1
6.7000,1.6601,1.6262,1
6.7000,1.6560,1.6214,1
6.7000,1.6504,1.6254,1
6.7000,1.6560,1.6278,1
6.7000,1.6601,1.6456,1
6.7000,1.6536,1.6391,1
6.7000,1.6568,1.6343,1
6.7000,1.6593,1.6238,1
6.7398,1.6568,1.6133,1
6.7398,1.6544,1.6174,1
6.7398,1.6577,1.6133,1
6.7398,1.6552,1.6166,1
6.7398,1.6544,1.6093,1
6.7398,1.6568,1.6093,1
6.7398,1.6577,1.6117,1
6.7398,1.6601,1.6125,1
6.7398,1.6560,1.6246,1
6.7398,1.6585,1.6270,1
6.7398,1.6568,1.6214,1
6.7398,1.6560,1.6254,1
6.7398,1.6601,1.6254,1
6.7398,1.6641,1.6198,1
6.7398,1.6641,1.6238,1
6.7398,1.6593,1.6448,1
6.7398,1.6609,1.6448,1
6.7398,1.6601,1.6415,1
6.7398,1.6560,1.6351,1
6.7398,1.6577,1.6327,1
6.7398,1.6601,1.6536,1
6.7398,1.6617,1.6536,1
6.7398,1.6568,1.6560,1
6.7398,1.6585,1.6472,1
6.7398,1.6601,1.6456,1
6.7398,1.6560,1.6319,1
6.7398,1.6544,1.6303,1
6.7398,1.6560,1.6335,1
6.7398,1.6609,1.6448,1
6.7398,1.6593,1.6472,1
6.7398,1.6633,1.6198,1
6.7398,1.6609,1.6133,1
6.7398,1.6568,1.6101,1
6.7398,1.6560,1.6214,1
6.7398,1.6617,1.6303,1
6.7398,1.6657,1.6254,1
6.7398,1.6641,1.6311,1
6.7398,1.6681,1.6391,1
6.7398,1.6560,1.6319,1
6.7398,1.6544,1.6399,1
6.7398,1.6536,1.6689,1
6.7398,1.6568,1.6665,1
6.7398,1.6601,1.6738,1
6.7398,1.6649,1.6746,1
6.7398,1.6649,1.6730,1
6.7398,1.6649,1.6770,1
6.7398,1.6641,1.6625,1
6.7398,1.6560,1.6585,1
6.7398,1.6665,1.6730,1
6.7398,1.6641,1.6633,1
6.7398,1.6593,1.6432,1
6.7398,1.6826,1.6440,1
6.7398,1.6826,1.6423,1
6.7398,1.6746,1.6367,1
6.7398,1.6689,1.6311,1
6.7398,1.6697,1.6327,1
6.7398,1.6665,1.6480,1
6.7398,1.6657,1.6415,1
6.7398,1.6689,1.6286,1
6.7398,1.6730,1.6214,1
6.7398,1.6714,1.6319,1
6.7398,1.6440,1.6343,1
6.7398,1.6472,1.6351,1
6.7398,1.6496,1.6399,1
6.7398,1.6512,1.6456,1
6.7398,1.6520,1.6520,1
6.7398,1.6585,1.6423,1
6.7398,1.6601,1.6464,1
6.7398,1.6601,1.6399,1
6.7398,1.6625,1.6641,1
6.7398,1.6665,1.6488,1
6.7398,1.6665,1.6536,1
6.7398,1.6633,1.6423,1
6.7398,1.6657,1.6335,1
6.7398,1.6641,1.6295,1
6.7398,1.6649,1.6101,1
6.7398,1.6673,1.6117,1
6.7398,1.6730,1.6125,1
6.7398,1.6641,1.6109,1
6.7398,1.6609,1.5996,1
6.7398,1.6625,1.6246,1
6.7398,1.6657,1.6262,1
6.7398,1.6601,1.6335,1
6.7961,1.6633,1.6303,1
6.7961,1.6641,1.6246,1
6.7961,1.6649,1.6423,1
6.7961,1.6609,1.6407,1
6.7961,1.6593,1.6343,1
6.7961,1.6641,1.6375,1
6.7961,1.6625,1.6351,1
6.7961,1.6609,1.6141,1
6.7961,1.6568,1.6101,1
6.7961,1.6601,1.6125,1
6.7961,1.6528,1.6214,1
6.7961,1.6577,1.6069,1
6.7961,1.6520,1.6037,1
6.7961,1.6512,1.5988,1
6.7961,1.6528,1.6117,1
6.7961,1.6560,1.6133,1
6.7961,1.6560,1.6359,1
6.7961,1.6560,1.6472,1
6.7961,1.6609,1.6415,1
6.7961,1.6649,1.6335,1
6.7961,1.6633,1.6117,1
6.7961,1.6617,1.6504,1
6.7961,1.6665,1.6512,1
6.7961,1.6681,1.6859,1
6.7961,1.6649,1.6746,1
6.7961,1.6673,1.6714,1
6.7961,1.6697,1.6544,1
6.7961,1.6689,1.6456,1
6.7961,1.6649,1.6512,1
6.7961,1.6657,1.6577,1
6.7961,1.6689,1.6754,1
6.7961,1.6649,1.6552,1
6.7961,1.6649,1.6456,1
6.7961,1.6665,1.6149,1
6.7961,1.6641,1.6198,1
6.7961,1.6577,1.6198,1
6.7961,1.6609,1.6174,1
6.7961,1.6609,1.6214,1
6.7961,1.6617,1.6037,1
6.7961,1.6601,1.6045,1
6.7961,1.6625,1.6166,1
6.7961,1.6593,1.6238,1
6.7961,1.6577,1.6311,1
6.7961,1.6560,1.6327,1
6.7961,1.6593,1.6327,1
6.7961,1.6585,1.6375,1
6.7961,1.6593,1.6238,1
6.7961,1.6601,1.6504,1
6.7961,1.6585,1.6625,1
6.7961,1.6568,1.6585,1
6.7961,1.6617,1.6528,1
6.7961,1.6657,1.6399,1
6.7961,1.6641,1.6456,1
6.7961,1.6641,1.6512,1
6.7961,1.6665,1.6488,1
6.7961,1.6689,1.6480,1
6.7961,1.6657,1.6673,1
6.7961,1.6714,1.6327,1
6.7961,1.6746,1.6262,1
6.7961,1.6705,1.6270,1
6.7961,1.6657,1.6174,1
6.7961,1.6665,1.6246,1
6.7961,1.6568,1.6117,1
6.7961,1.6528,1.6029,1
6.7961,1.6568,1.6037,1
6.7961,1.6544,1.6117,1
6.7961,1.6544,1.6278,1
6.7961,1.6496,1.6423,1
6.7961,1.6536,1.6544,1
6.7961,1.6544,1.6536,1
6.7961,1.6528,1.6585,1
6.7961,1.6536,1.6681,1
6.7961,1.6657,1.6802,1
6.7961,1.6689,1.6899,1
6.7961,1.6633,1.6979,1
6.7961,1.6689,1.6834,1
6.7961,1.6657,1.6568,1
6.7961,1.6577,1.6504,1
6.7961,1.6544,1.6472,1
6.7961,1.6568,1.6552,1
6.7961,1.6577,1.6617,1
6.7961,1.6544,1.6480,1
6.7961,1.6601,1.6303,1
6.7961,1.6504,1.6319,1
6.7961,1.6512,1.6303,1
6.7961,1.6480,1.6496,1
6.7961,1.6520,1.6665,1
6.7961,1.6577,1.6762,1
6.7961,1.6464,1.6786,1
6.7961,1.6512,1.6665,1
6.7961,1.6504,1.6609,1
6.7961,1.6504,1.6601,1
6.7961,1.6456,1.6681,1
6.7961,1.6568,1.6754,1
6.7961,1.6544,1.6512,1
6.7961,1.6536,1.6415,1
6.7961,1.6552,1.6391,1
6.7961,1.6585,1.6270,1
6.7961,1.6649,1.6383,1
6.7961,1.6593,1.6504,1
6.7961,1.6681,1.6464,1
6.7961,1.6697,1.6593,1
6.7961,1.6665,1.6681,1
6.7961,1.6641,1.6568,1
6.7961,1.6689,1.6794,1
6.7961,1.6665,1.6818,1
6.7961,1.6657,1.6705,1
6.7961,1.6633,1.6738,1
6.7961,1.6730,1.6633,1
6.8436,1.6657,1.6593,1
6.8436,1.6617,1.6649,1
6.8436,1.6601,1.6617,1
6.8436,1.6609,1.6359,1
6.8436,1.6609,1.6351,1
6.8436,1.6641,1.6415,1
6.8436,1.6697,1.6440,1
6.8436,1.6649,1.6456,1
6.8436,1.6665,1.6464,1
6.8436,1.6625,1.6480,1
6.8436,1.6722,1.6504,1
6.8436,1.6641,1.6343,1
6.8436,1.6705,1.6343,1
6.8436,1.6722,1.6657,1
6.8436,1.6705,1.6689,1
6.8436,1.6665,1.6673,1
6.8436,1.6657,1.6705,1
6.8436,1.6689,1.6730,1
6.8436,1.6649,1.6697,1
6.8436,1.6681,1.6649,1
6.8436,1.6657,1.6552,1
6.8436,1.6714,1.6722,1
6.8436,1.6665,1.6730,1
6.8436,1.6673,1.6496,1
6.8436,1.6657,1.6383,1
6.8436,1.6601,1.6222,1
6.8436,1.6568,1.6198,1
6.8436,1.6593,1.6158,1
6.8436,1.6593,1.6311,1
6.8436,1.6512,1.6432,1
6.8436,1.6520,1.6319,1
6.8436,1.6496,1.6407,1
6.8436,1.6480,1.6496,1
6.8436,1.6488,1.6601,1
6.8436,1.6512,1.6641,1
6.8436,1.6544,1.6786,1
6.8436,1.6544,1.6754,1
6.8436,1.6568,1.6786,1
6.8436,1.6577,1.6738,1
6.8436,1.6577,1.6649,1
6.8436,1.6585,1.6834,1
6.8436,1.6609,1.6722,1
6.8436,1.6609,1.6568,1
6.8436,1.6746,1.6641,1
6.8436,1.6770,1.6681,1
6.8436,1.6730,1.6649,1
6.8436,1.6697,1.6560,1
6.8436,1.6625,1.6528,1
6.8436,1.6641,1.6440,1
6.8436,1.6633,1.6399,1
6.8436,1.6609,1.6375,1
6.8436,1.6649,1.6375,1
6.8436,1.6649,1.6432,1
6.8436,1.6496,1.6367,1
6.8436,1.6512,1.6399,1
6.8436,1.6544,1.6448,1
6.8436,1.6577,1.6536,1
6.8436,1.6617,1.6544,1
6.8436,1.6649,1.6536,1
6.8436,1.6689,1.6577,1
6.8436,1.6681,1.6609,1
6.8436,1.6625,1.6609,1
6.8436,1.6673,1.6544,1
6.8436,1.6673,1.6407,1
6.8436,1.6633,1.6415,1
6.8436,1.6657,1.6286,1
6.8436,1.6665,1.6262,1
6.8436,1.6689,1.6303,1
6.8436,1.6673,1.6230,1
6.8436,1.6730,1.6069,1
6.8436,1.6714,1.5900,1
6.8436,1.6697,1.5972,1
6.8436,1.6705,1.6029,1
6.8436,1.6689,1.6174,1
6.8436,1.6681,1.6093,1
6.8436,1.6657,1.6141,1
6.8436,1.6689,1.6174,1
6.8436,1.6673,1.6141,1
6.8436,1.6625,1.6303,1
6.8436,1.6585,1.6391,1
6.8436,1.6601,1.6415,1
6.8436,1.6601,1.6190,1
6.8436,1.6536,1.6077,1
6.8436,1.6593,1.5996,1
6.8436,1.6641,1.6053,1
6.8436,1.6601,1.6021,1
6.8436,1.6552,1.5940,1
6.8436,1.6520,1.5972,1
6.8436,1.6528,1.6004,1
6.8436,1.6512,1.5827,1
6.8436,1.6552,1.5908,1
6.8436,1.6577,1.6182,1
6.8436,1.6560,1.6327,1
6.8436,1.6544,1.6278,1
6.8436,1.6585,1.6214,1
6.8754,1.6593,1.6262,1
6.8754,1.6593,1.6262,1
6.8754,1.6633,1.6295,1
6.8754,1.6649,1.6117,1
6.8754,1.6689,1.6375,1
6.8754,1.6657,1.6383,1
6.8754,1.6665,1.6182,1
6.8754,1.6705,1.6117,1
6.8754,1.6657,1.6335,1
6.8754,1.6601,1.6488,1
6.8754,1.6617,1.6375,1
6.8754,1.6617,1.6504,1
6.8754,1.6593,1.6375,1
6.8754,1.6609,1.6480,1
6.8754,1.6544,1.6464,1
6.8754,1.6512,1.6407,1
6.8754,1.6512,1.6617,1
6.8754,1.6520,1.6681,1
6.8754,1.6496,1.6609,1
6.8754,1.6488,1.6456,1
6.8754,1.6617,1.6464,1
6.8754,1.6641,1.6311,1
6.8754,1.6633,1.6335,1
6.8754,1.6593,1.6335,1
6.8754,1.6617,1.6295,1
6.8754,1.6649,1.6375,1
6.8754,1.6641,1.6198,1
6.8754,1.6593,1.6230,1
6.8754,1.6633,1.6335,1
6.8754,1.6625,1.6407,1
6.8754,1.6552,1.6480,1
6.8754,1.6593,1.6472,1
6.8754,1.6560,1.6351,1
6.8754,1.6593,1.6141,1
6.8754,1.6633,1.6230,1
6.8754,1.6681,1.6367,1
6.8754,1.6673,1.6504,1
6.8754,1.6689,1.6262,1
6.8754,1.6697,1.6125,1
6.8754,1.6681,1.6133,1
6.8754,1.6625,1.6069,1
6.8754,1.6593,1.6351,1
6.8754,1.6649,1.6730,1
6.8754,1.6609,1.6979,1
6.8754,1.6552,1.6818,1
6.8754,1.6544,1.6633,1
6.8754,1.6536,1.6480,1
6.8754,1.6504,1.6440,1
6.8754,1.6496,1.6496,1
6.8754,1.6536,1.6544,1
6.8754,1.6544,1.6577,1
6.8754,1.6544,1.6319,1
6.8754,1.6577,1.6045,1
6.8754,1.6552,1.5811,1
6.8754,1.6536,1.6174,1
6.8754,1.6520,1.6262,1
6.8754,1.6552,1.6254,1
6.8754,1.6560,1.6432,1
6.8754,1.6585,1.6335,1
6.8754,1.6278,1.6254,1
6.8754,1.6303,1.6262,1
6.8754,1.6319,1.6319,1
6.8754,1.6327,1.6464,1
6.8754,1.6407,1.6851,1
6.8754,1.6432,1.6504,1
6.8754,1.6440,1.6432,1
6.8754,1.6480,1.6488,1
6.8754,1.6528,1.6536,1
6.8754,1.6472,1.6609,1
6.8754,1.6778,1.6593,1
6.8754,1.6746,1.6609,1
6.9231,1.6705,1.6512,1
6.9231,1.6657,1.6472,1
6.9231,1.6649,1.6206,1
6.9231,1.6609,1.6375,1
6.9231,1.6544,1.6536,1
6.9231,1.6496,1.6665,1
6.9231,1.6641,1.6746,1
6.9231,1.6649,1.6762,1
6.9231,1.6609,1.6842,1
6.9231,1.6641,1.6730,1
6.9231,1.6649,1.6826,1
6.9231,1.6633,1.6697,1
6.9231,1.6609,1.6593,1
6.9231,1.6681,1.6367,1
6.9231,1.6705,1.6270,1
6.9231,1.6705,1.6230,1
6.9231,1.6593,1.6101,1
6.9231,1.6617,1.6125,1
6.9231,1.6617,1.6045,1
6.9231,1.6593,1.6101,1
6.9231,1.6665,1.6093,1
6.9231,1.6689,1.6246,1
6.9231,1.6705,1.6335,1
6.9231,1.6746,1.6536,1
6.9231,1.6786,1.6311,1
6.9231,1.6786,1.6214,1
6.9231,1.6762,1.6278,1
6.9231,1.6770,1.6351,1
6.9231,1.6810,1.6335,1
6.9231,1.6794,1.6504,1
6.9231,1.6786,1.6520,1
6.9231,1.6778,1.6448,1
6.9231,1.6738,1.6552,1
6.9231,1.6665,1.6423,1
6.9231,1.6681,1.6641,1
6.9231,1.6657,1.6722,1
6.9231,1.6625,1.6810,1
6.9231,1.6641,1.6601,1
6.9231,1.6657,1.6609,1
6.9231,1.6657,1.6528,1
6.9231,1.6577,1.6560,1
6.9231,1.6617,1.6536,1
6.9231,1.6617,1.6528,1
6.9231,1.6609,1.6528,1
6.9231,1.6585,1.6407,1
6.9231,1.6568,1.6327,1
6.9231,1.6544,1.6262,1
6.9231,1.6504,1.6230,1
6.9231,1.6520,1.6206,1
6.9231,1.6552,1.6254,1
6.9231,1.6568,1.6351,1
6.9231,1.6528,1.6456,1
6.9231,1.6585,1.6649,1
6.9231,1.6585,1.6689,1
6.9231,1.6552,1.6802,1
6.9231,1.6633,1.6818,1
6.9231,1.6649,1.6810,1
6.9231,1.6649,1.6947,1
6.9231,1.6641,1.6818,1
6.9231,1.6673,1.6697,1
6.9231,1.6673,1.6568,1
6.9231,1.6681,1.6512,1
6.9231,1.6705,1.6295,1
6.9231,1.6722,1.6295,1
6.9231,1.6714,1.6303,1
6.9231,1.6657,1.6391,1
6.9231,1.6722,1.6383,1
6.9231,1.6705,1.6577,1
6.9231,1.6673,1.6673,1
6.9231,1.6625,1.6705,1
6.9231,1.6657,1.6601,1
6.9231,1.6633,1.6577,1
6.9231,1.6585,1.6649,1
6.9231,1.6617,1.6617,1
6.9231,1.6625,1.6512,1
6.9231,1.6577,1.6399,1
6.9231,1.6601,1.6311,1
6.9231,1.6641,1.6262,1
6.9231,1.6657,1.6214,1
6.9231,1.6681,1.6278,1
6.9231,1.6681,1.6327,1
6.9231,1.6673,1.6214,1
6.9231,1.6673,1.6085,1
6.9231,1.6665,1.6045,1
6.9231,1.6673,1.6133,1
6.9231,1.6714,1.6238,1
6.9231,1.6673,1.6254,1
6.9231,1.6641,1.6012,1
6.9700,1.6641,1.6166,1
6.9700,1.6657,1.6085,1
6.9700,1.6673,1.6069,1
6.9700,1.6689,1.6222,1
6.9700,1.6657,1.6166,1
6.9700,1.6593,1.6222,1
6.9700,1.6609,1.6278,1
6.9700,1.6609,1.6206,1
6.9700,1.6528,1.6222,1
6.9700,1.6593,1.6335,1
6.9700,1.6601,1.6286,1
6.9700,1.6544,1.6311,1
6.9700,1.6512,1.6295,1
6.9700,1.6593,1.6214,1
6.9700,1.6641,1.6278,1
6.9700,1.6649,1.6278,1
6.9700,1.6665,1.6166,1
6.9700,1.6681,1.6093,1
6.9700,1.6730,1.5964,1
6.9700,1.6649,1.6012,1
6.9700,1.6657,1.5964,1
6.9700,1.6641,1.6149,1
6.9700,1.6617,1.6230,1
6.9700,1.6585,1.6311,1
6.9700,1.6560,1.6085,1
6.9700,1.6552,1.6125,1
6.9700,1.6568,1.6182,1
6.9700,1.6593,1.6270,1
6.9700,1.6601,1.6343,1
6.9700,1.6585,1.6295,1
6.9700,1.6593,1.6343,1
6.9700,1.6657,1.6198,1
6.9700,1.6665,1.6133,1
6.9700,1.6649,1.6141,1
6.9700,1.6673,1.6399,1
6.9700,1.6657,1.6343,1
6.9700,1.6593,1.6351,1
6.9700,1.6568,1.6383,1
6.9700,1.6601,1.6407,1
6.9700,1.6633,1.6278,1
6.9700,1.6601,1.6214,1
6.9700,1.6625,1.6254,1
6.9700,1.6633,1.6286,1
6.9700,1.6601,1.6295,1
6.9700,1.6593,1.6327,1
6.9700,1.6633,1.6343,1
6.9700,1.6665,1.6335,1
6.9700,1.6649,1.6222,1
6.9700,1.6689,1.6351,1
6.9700,1.6673,1.6552,1
6.9700,1.6657,1.6705,1
6.9700,1.6649,1.6657,1
6.9700,1.6665,1.6609,1
6.9700,1.6665,1.6464,1
6.9700,1.6625,1.6375,1
6.9700,1.6633,1.6472,1
6.9700,1.6617,1.6520,1
6.9700,1.6585,1.6552,1
6.9700,1.6577,1.6367,1
6.9700,1.6633,1.6278,1
6.9700,1.6633,1.6166,1
6.9700,1.6617,1.6182,1
6.9700,1.6665,1.6278,1
6.9700,1.6665,1.6383,1
6.9700,1.6665,1.6399,1
6.9700,1.6681,1.6335,1
6.9700,1.6689,1.6270,1
6.9700,1.6681,1.6278,1
6.9700,1.6681,1.6343,1
6.9700,1.6657,1.6327,1
6.9700,1.6705,1.6391,1
6.9700,1.6633,1.6448,1
6.9700,1.6617,1.6472,1
6.9700,1.6665,1.6480,1
6.9700,1.6657,1.6448,1
6.9700,1.6625,1.6456,1
6.9700,1.6673,1.6496,1
6.9700,1.6697,1.6343,1
6.9700,1.6657,1.6214,1
6.9700,1.6625,1.6254,1
6.9700,1.6601,1.6254,1
6.9700,1.6617,1.6190,1
6.9700,1.6577,1.6117,1
6.9700,1.6593,1.6383,1
6.9700,1.6633,1.6367,1
6.9700,1.6593,1.6262,1
6.9700,1.6560,1.6190,1
6.9700,1.6625,1.6407,1
6.9700,1.6609,1.6585,1
6.9700,1.6593,1.6568,1
6.9700,1.6625,1.6472,1
6.9700,1.6649,1.6423,1
6.9700,1.6649,1.6415,1
6.9700,1.6633,1.6198,1
7.0166,1.6665,1.6125,1
7.0166,1.6641,1.6359,1
7.0166,1.6641,1.6488,1
7.0166,1.6625,1.6415,1
7.0166,1.6625,1.6230,1
7.0166,1.6665,1.6117,1
7.0166,1.6399,1.6222,1
7.0166,1.6440,1.6254,1
7.0166,1.6456,1.6270,1
7.0166,1.6432,1.6262,1
7.0166,1.6440,1.6488,1
7.0166,1.6512,1.6335,1
7.0166,1.6488,1.6270,1
7.0166,1.6464,1.6375,1
7.0166,1.6528,1.6456,1
7.0166,1.6528,1.6560,1
7.0166,1.6714,1.6536,1
7.0166,1.6689,1.6536,1
7.0166,1.6705,1.6536,1
7.0166,1.6665,1.6440,1
7.0166,1.6577,1.6351,1
7.0166,1.6625,1.6456,1
7.0166,1.6617,1.6399,1
7.0166,1.6593,1.6327,1
7.0166,1.6568,1.6415,1
7.0166,1.6552,1.6407,1
7.0166,1.6552,1.6464,1
7.0166,1.6520,1.6423,1
7.0166,1.6512,1.6399,1
7.0166,1.6544,1.6407,1
7.0166,1.6577,1.6432,1
7.0166,1.6560,1.6311,1
7.0166,1.6609,1.6399,1
7.0166,1.6609,1.6456,1
7.0166,1.6585,1.6552,1
7.0166,1.6617,1.6657,1
7.0166,1.6633,1.6544,1
7.0166,1.6633,1.6432,1
7.0166,1.6641,1.6464,1
7.0166,1.6641,1.6432,1
7.0166,1.6649,1.6440,1
7.0166,1.6609,1.6544,1
7.0166,1.6617,1.6375,1
7.0166,1.6681,1.6448,1
7.0166,1.6641,1.6359,1
7.0166,1.6625,1.6182,1
7.0166,1.6633,1.6254,1
7.0166,1.6625,1.6399,1
7.0166,1.6617,1.6383,1
7.0166,1.6649,1.6415,1
7.0166,1.6657,1.6359,1
7.0166,1.6633,1.6295,1
7.0166,1.6617,1.6407,1
7.0166,1.6585,1.6359,1
7.0166,1.6609,1.6319,1
7.0166,1.6593,1.6375,1
7.0166,1.6633,1.6174,1
7.0166,1.6657,1.6246,1
7.0166,1.6633,1.6278,1
7.0166,1.6625,1.6311,1
7.0166,1.6633,1.6295,1
7.0166,1.6625,1.6270,1
7.0166,1.6585,1.6230,1
7.0166,1.6625,1.6206,1
7.0166,1.6633,1.6198,1
7.0166,1.6585,1.6182,1
7.0166,1.6560,1.6375,1
7.0166,1.6552,1.6254,1
7.0166,1.6552,1.6182,1
7.0166,1.6512,1.6166,1
7.0166,1.6544,1.6230,1
7.0166,1.6593,1.6206,1
7.0166,1.6568,1.6254,1
7.0166,1.6512,1.6182,1
7.0166,1.6560,1.6262,1
7.0166,1.6601,1.6254,1
7.0166,1.6641,1.6214,1
7.0166,1.6665,1.6246,1
7.0166,1.6689,1.6351,1
7.0166,1.6585,1.6375,1
7.0166,1.6568,1.6407,1
7.0166,1.6593,1.6407,1
7.0166,1.6649,1.6367,1
7.0166,1.6625,1.6423,1
7.0166,1.6609,1.6327,1
7.0166,1.6657,1.6262,1
7.0166,1.6609,1.6335,1
7.0166,1.6585,1.6351,1
7.0166,1.6649,1.6335,1
7.0166,1.6754,1.6391,1
7.0166,1.6730,1.6037,1
7.0166,1.6705,1.6093,1
7.0166,1.6681,1.6141,1
7.0646,1.6681,1.6077,1
7.0646,1.6641,1.6133,1
7.0646,1.6633,1.6295,1
7.0646,1.6617,1.6343,1
7.0646,1.6697,1.6448,1
7.0646,1.6649,1.6351,1
7.0646,1.6665,1.6343,1
7.0646,1.6641,1.6577,1
7.0646,1.6585,1.6464,1
7.0646,1.6633,1.6520,1
7.0646,1.6665,1.6568,1
7.0646,1.6609,1.6552,1
7.0646,1.6609,1.6528,1
7.0646,1.6689,1.6440,1
7.0646,1.6585,1.6295,1
7.0646,1.6593,1.6496,1
7.0646,1.6625,1.6415,1
7.0646,1.6641,1.6649,1
7.0646,1.6665,1.6705,1
7.0646,1.6625,1.6617,1
7.0646,1.6649,1.6552,1
7.0646,1.6681,1.6464,1
7.0646,1.6697,1.6464,1
7.0646,1.6697,1.6440,1
7.0646,1.6714,1.6552,1
7.0646,1.6657,1.6335,1
7.0646,1.6625,1.6343,1
7.0646,1.6665,1.6158,1
7.0646,1.6649,1.6166,1
7.0646,1.6665,1.6286,1
7.0646,1.6714,1.6399,1
7.0646,1.6722,1.6625,1
7.0646,1.6657,1.6722,1
7.0646,1.6617,1.6714,1
7.0646,1.6625,1.6689,1
7.0646,1.6609,1.6802,1
7.0646,1.6585,1.6746,1
7.0646,1.6601,1.6577,1
7.0646,1.6625,1.6689,1
7.0646,1.6617,1.6657,1
7.0646,1.6577,1.6585,1
7.0646,1.6617,1.6399,1
7.0646,1.6641,1.6327,1
7.0646,1.6617,1.6295,1
7.0646,1.6641,1.6262,1
7.0646,1.6697,1.6093,1
7.0646,1.6673,1.6174,1
7.0646,1.6665,1.6464,1
7.0646,1.6697,1.6440,1
7.0646,1.6705,1.6359,1
7.0646,1.6665,1.6367,1
7.0646,1.6689,1.6649,1
7.0646,1.6673,1.6464,1
7.0646,1.6697,1.6456,1
7.0646,1.6657,1.6432,1
7.0646,1.6681,1.6544,1
7.0646,1.6705,1.6577,1
7.0646,1.6633,1.6456,1
7.0646,1.6633,1.6311,1
7.0646,1.6625,1.6286,1
7.0646,1.6617,1.6367,1
7.0646,1.6585,1.6061,1
7.0646,1.6617,1.6383,1
7.0646,1.6560,1.6327,1
7.0646,1.6528,1.6311,1
7.0646,1.6552,1.6246,1
7.0646,1.6593,1.6190,1
7.0646,1.6593,1.6214,1
7.0646,1.6536,1.6238,1
7.0646,1.6577,1.6303,1
7.0646,1.6552,1.6399,1
7.0646,1.6544,1.6568,1
7.0646,1.6544,1.6496,1
7.0646,1.6568,1.6536,1
7.0646,1.6585,1.6657,1
7.0646,1.6536,1.6730,1
7.0646,1.6560,1.6730,1
7.0646,1.6577,1.6697,1
7.0646,1.6601,1.6722,1
7.0646,1.6568,1.6697,1
7.0646,1.6601,1.6568,1
7.0646,1.6552,1.6560,1
7.0646,1.6552,1.6335,1
7.0646,1.6601,1.6295,1
7.0646,1.6601,1.6359,1
7.0646,1.6577,1.6415,1
7.0646,1.6544,1.6504,1
7.0646,1.6552,1.6625,1
7.0646,1.6520,1.6722,1
7.0646,1.6536,1.6705,1
7.0646,1.6568,1.6657,1
7.0646,1.6585,1.6488,1
7.0646,1.6512,1.6617,1
7.0646,1.6536,1.6762,1
7.0646,1.6536,1.6762,1
7.0646,1.6552,1.6705,1
7.1110,1.6552,1.6705,1
7.1110,1.6560,1.6601,1
7.1110,1.6585,1.6496,1
7.1110,1.6552,1.6423,1
7.1110,1.6560,1.6456,1
7.1110,1.6601,1.6593,1
7.1110,1.6625,1.6536,1
7.1110,1.6560,1.6480,1
7.1110,1.6617,1.6423,1
7.1110,1.6625,1.6423,1
7.1110,1.6593,1.6359,1
7.1110,1.6593,1.6367,1
7.1110,1.6649,1.6415,1
7.1110,1.6633,1.6423,1
7.1110,1.6625,1.6391,1
7.1110,1.6641,1.6480,1
7.1110,1.6649,1.6448,1
7.1110,1.6617,1.6383,1
7.1110,1.6585,1.6343,1
7.1110,1.6593,1.6399,1
7.1110,1.6657,1.6448,1
7.1110,1.6665,1.6448,1
7.1110,1.6657,1.6423,1
7.1110,1.6673,1.6528,1
7.1110,1.6641,1.6552,1
7.1110,1.6633,1.6496,1
7.1110,1.6697,1.6512,1
7.1110,1.6689,1.6552,1
7.1110,1.6665,1.6504,1
7.1110,1.6722,1.6585,1
7.1110,1.6649,1.6568,1
7.1110,1.6633,1.6601,1
7.1110,1.6585,1.6504,1
7.1110,1.6625,1.6440,1
7.1110,1.6617,1.6504,1
7.1110,1.6601,1.6504,1
7.1110,1.6617,1.6778,1
7.1110,1.6649,1.6730,1
7.1110,1.6609,1.6762,1
7.1110,1.6568,1.6641,1
7.1110,1.6609,1.6714,1
7.1110,1.6593,1.6714,1
7.1110,1.6593,1.6851,1
7.1110,1.6585,1.6907,1
7.1110,1.6593,1.6818,1
7.1110,1.6585,1.6794,1
7.1110,1.6544,1.6496,1
7.1110,1.6585,1.6609,1
7.1110,1.6625,1.6786,1
7.1110,1.6560,1.6834,1
7.1110,1.6577,1.6794,1
7.1110,1.6601,1.6762,1
7.1110,1.6577,1.6625,1
7.1110,1.6560,1.6641,1
7.1110,1.6585,1.6649,1
7.1110,1.6552,1.6617,1
7.1110,1.6496,1.6770,1
7.1110,1.6480,1.6697,1
7.1110,1.6536,1.6464,1
7.1110,1.6552,1.6448,1
7.1110,1.6496,1.6520,1
7.1110,1.6528,1.6472,1
7.1110,1.6552,1.6665,1
7.1110,1.6552,1.6633,1
7.1110,1.6472,1.6722,1
7.1110,1.6544,1.6601,1
7.1110,1.6552,1.6641,1
7.1110,1.6560,1.6738,1
7.1110,1.6520,1.6794,1
7.1110,1.6528,1.6697,1
7.1110,1.6520,1.6560,1
7.1110,1.6480,1.6448,1
7.1110,1.6504,1.6359,1
7.1110,1.6480,1.6319,1
7.1110,1.6544,1.6230,1
7.1110,1.6520,1.6311,1
7.1110,1.6560,1.6254,1
7.1110,1.6528,1.6085,1
7.1110,1.6520,1.6053,1
7.1110,1.6560,1.6101,1
7.1110,1.6593,1.5940,1
7.1110,1.6585,1.6246,1
7.1110,1.6536,1.6230,1
7.1110,1.6512,1.6262,1
7.1110,1.6544,1.6270,1
7.1110,1.6544,1.6214,1
7.1110,1.6544,1.6004,1
7.1110,1.6504,1.6133,1
7.1110,1.6488,1.6133,1
7.1110,1.6544,1.6182,1
7.1110,1.6552,1.6327,1
7.1110,1.6552,1.6109,1
7.1110,1.6577,1.6141,1
7.1581,1.6641,1.6158,1
7.1581,1.6560,1.6029,1
7.1581,1.6520,1.6166,1
7.1581,1.6528,1.6311,1
7.1581,1.6593,1.6198,1
7.1581,1.6552,1.6198,1
7.1581,1.6496,1.6125,1
7.1581,1.6504,1.6085,1
7.1581,1.6504,1.6061,1
7.1581,1.6480,1.6286,1
7.1581,1.6528,1.6303,1
7.1581,1.6552,1.6367,1
7.1581,1.6585,1.6246,1
7.1581,1.6536,1.6206,1
7.1581,1.6585,1.6182,1
7.1581,1.6601,1.6141,1
7.1581,1.6544,1.6141,1
7.1581,1.6528,1.6109,1
7.1581,1.6544,1.6206,1
7.1581,1.6536,1.5940,1
7.1581,1.6520,1.5916,1
7.1581,1.6544,1.6053,1
7.1581,1.6544,1.6093,1
7.1581,1.6560,1.6101,1
7.1581,1.6536,1.6158,1
7.1581,1.6568,1.6246,1
7.1581,1.6601,1.6206,1
7.1581,1.6593,1.6214,1
7.1581,1.6625,1.6238,1
7.1581,1.6601,1.6319,1
7.1581,1.6544,1.6311,1
7.1581,1.6544,1.6319,1
7.1581,1.6552,1.6286,1
7.1581,1.6544,1.6391,1
7.1581,1.6512,1.6448,1
7.1581,1.6560,1.6432,1
7.1581,1.6536,1.6520,1
7.1581,1.6472,1.6560,1
7.1581,1.6432,1.6480,1
7.1581,1.6520,1.6496,1
7.1581,1.6544,1.6432,1
7.1581,1.6528,1.6262,1
7.1581,1.6552,1.6230,1
7.1581,1.6536,1.6222,1
7.1581,1.6544,1.6166,1
7.1581,1.6560,1.6133,1
7.1581,1.6585,1.6149,1
7.1581,1.6609,1.6158,1
7.1581,1.6577,1.6206,1
7.1581,1.6577,1.6222,1
7.1581,1.6544,1.6286,1
7.1581,1.6512,1.6432,1
7.1581,1.6480,1.6544,1
7.1581,1.6472,1.6512,1
7.1581,1.6472,1.6488,1
7.1581,1.6359,1.6351,1
7.1581,1.6399,1.6246,1
7.1581,1.6399,1.6295,1
7.1581,1.6407,1.6504,1
7.1581,1.6367,1.6407,1
7.1581,1.6464,1.6359,1
7.1581,1.6504,1.6343,1
7.1581,1.6496,1.6246,1
7.1581,1.6568,1.6166,1
7.1581,1.6593,1.6278,1
7.1581,1.6625,1.6432,1
7.1581,1.6617,1.6399,1
7.1581,1.6665,1.6383,1
7.1581,1.6633,1.6238,1
7.1581,1.6625,1.6311,1
7.1581,1.6568,1.6423,1
7.1581,1.6536,1.6303,1
7.1581,1.6512,1.6343,1
7.1581,1.6464,1.6367,1
7.1581,1.6456,1.6295,1
7.1581,1.6440,1.6311,1
7.1581,1.6375,1.6609,1
7.1581,1.6391,1.6536,1
7.1581,1.6472,1.6585,1
7.1581,1.6456,1.6456,1
7.1581,1.6488,1.6375,1
7.1581,1.6520,1.6327,1
7.1581,1.6528,1.6085,1
7.1581,1.6544,1.6246,1
7.1581,1.6568,1.6327,1
7.1581,1.6601,1.6359,1
7.1581,1.6617,1.6109,1
7.1581,1.6585,1.6311,1
7.1581,1.6343,1.6141,1
7.1581,1.6399,1.6198,1
7.1581,1.6343,1.6246,1
7.1581,1.6383,1.6464,1
7.1581,1.6415,1.6617,1
7.1581,1.6423,1.6512,1
7.2050,1.6391,1.6456,1
7.2050,1.6415,1.6448,1
7.2050,1.6423,1.6536,1
7.2050,1.6399,1.6327,1
7.2050,1.6625,1.6432,1
7.2050,1.6601,1.6391,1
7.2050,1.6577,1.6391,1
7.2050,1.6536,1.6423,1
7.2050,1.6528,1.6496,1
7.2050,1.6440,1.6391,1
7.2050,1.6432,1.6335,1
7.2050,1.6432,1.6262,1
7.2050,1.6423,1.6270,1
7.2050,1.6415,1.6448,1
7.2050,1.6407,1.6432,1
7.2050,1.6415,1.6512,1
7.2050,1.6448,1.6472,1
7.2050,1.6432,1.6335,1
7.2050,1.6432,1.6399,1
7.2050,1.6480,1.6383,1
7.2050,1.6440,1.6407,1
7.2050,1.6432,1.6303,1
7.2050,1.6464,1.6278,1
7.2050,1.6448,1.6037,1
7.2050,1.6423,1.5980,1
7.2050,1.6399,1.5859,1
7.2050,1.6415,1.5884,1
7.2050,1.6383,1.5803,1
7.2050,1.6367,1.5610,1
7.2050,1.6391,1.5835,1
7.2050,1.6415,1.5811,1
7.2050,1.6415,1.6141,1
7.2050,1.6456,1.6149,1
7.2050,1.6520,1.6270,1
7.2050,1.6504,1.6327,1
7.2050,1.6512,1.6440,1
7.2050,1.6504,1.6351,1
7.2050,1.6552,1.6472,1
7.2050,1.6544,1.6552,1
7.2050,1.6585,1.6375,1
7.2050,1.6633,1.6375,1
7.2050,1.6617,1.6109,1
7.2050,1.6568,1.6021,1
7.2050,1.6536,1.5771,1
7.2050,1.6528,1.5610,1
7.2050,1.6504,1.5545,1
7.2050,1.6560,1.5730,1
7.2050,1.6512,1.5658,1
7.2050,1.6480,1.5642,1
7.2050,1.6423,1.5416,1
7.2050,1.6432,1.5481,1
7.2050,1.6423,1.5585,1
7.2050,1.6383,1.5690,1
7.2050,1.6407,1.5956,1
7.2050,1.6448,1.6109,1
7.2050,1.6528,1.6166,1
7.2050,1.6512,1.6029,1
7.2050,1.6593,1.6077,1
7.2050,1.6625,1.6214,1
7.2050,1.6601,1.6464,1
7.2050,1.6609,1.6286,1
7.2050,1.6641,1.6158,1
7.2050,1.6625,1.6214,1
7.2050,1.6617,1.6125,1
7.2050,1.6633,1.6327,1
7.2050,1.6568,1.6230,1
7.2050,1.6544,1.6166,1
7.2050,1.6528,1.6254,1
7.2050,1.6536,1.6053,1
7.2050,1.6536,1.6053,1
7.2050,1.6480,1.6270,1
7.2050,1.6504,1.6335,1
7.2050,1.6504,1.6295,1
7.2050,1.6472,1.6456,1
7.2050,1.6536,1.6335,1
7.2050,1.6552,1.6351,1
7.2050,1.6520,1.6448,1
7.2050,1.6488,1.6359,1
7.2050,1.6528,1.6480,1
7.2050,1.6568,1.6560,1
7.2050,1.6560,1.6423,1
7.2050,1.6593,1.6415,1
7.2050,1.6625,1.6351,1
7.2050,1.6617,1.6262,1
7.2050,1.6528,1.6407,1
7.2050,1.6544,1.6536,1
7.2050,1.6552,1.6440,1
7.2050,1.6552,1.6383,1
7.2050,1.6568,1.6367,1
7.2050,1.6544,1.6319,1
7.2050,1.6544,1.6440,1
7.2050,1.6488,1.6585,1
7.2050,1.6504,1.6536,1
7.2050,1.6504,1.6536,1
7.2526,1.6520,1.6472,1
7.2526,1.6552,1.6480,1
7.2526,1.6544,1.6512,1
7.2526,1.6552,1.6577,1
7.2526,1.6512,1.6617,1
7.2526,1.6536,1.6520,1
7.2526,1.6536,1.6399,1
7.2526,1.6520,1.6311,1
7.2526,1.6528,1.6448,1
7.2526,1.6520,1.6423,1
7.2526,1.6520,1.6190,1
7.2526,1.6488,1.6149,1
7.2526,1.6528,1.6174,1
7.2526,1.6544,1.6045,1
7.2526,1.6528,1.5940,1
7.2526,1.6560,1.6045,1
7.2526,1.6552,1.6125,1
7.2526,1.6544,1.6109,1
7.2526,1.6520,1.6166,1
7.2526,1.6568,1.6222,1
7.2526,1.6536,1.6391,1
7.2526,1.6520,1.6343,1
7.2526,1.6544,1.6391,1
7.2526,1.6528,1.6496,1
7.2526,1.6496,1.6544,1
7.2526,1.6440,1.6633,1
7.2526,1.6496,1.6714,1
7.2526,1.6488,1.6705,1
7.2526,1.6472,1.6568,1
7.2526,1.6496,1.6552,1
7.2526,1.6504,1.6262,1
7.2526,1.6504,1.6327,1
7.2526,1.6464,1.6335,1
7.2526,1.6496,1.6407,1
7.2526,1.6536,1.6657,1
7.2526,1.6528,1.6512,1
7.2526,1.6520,1.6383,1
7.2526,1.6544,1.6319,1
7.2526,1.6536,1.6528,1
7.2526,1.6512,1.6528,1
7.2526,1.6520,1.6851,1
7.2526,1.6504,1.6891,1
7.2526,1.6504,1.6875,1
7.2526,1.6520,1.6851,1
7.2526,1.6512,1.6778,1
7.2526,1.6488,1.6770,1
7.2526,1.6464,1.6963,1
7.2526,1.6504,1.6818,1
7.2526,1.6528,1.6730,1
7.2526,1.6496,1.6705,1
7.2526,1.6528,1.6601,1
7.2526,1.6536,1.6536,1
7.2526,1.6520,1.6480,1
7.2526,1.6456,1.6415,1
7.2526,1.6496,1.6335,1
7.2526,1.6504,1.6464,1
7.2526,1.6480,1.6335,1
7.2526,1.6496,1.6512,1
7.2526,1.6488,1.6432,1
7.2526,1.6496,1.6319,1
7.2526,1.6464,1.6262,1
7.2526,1.6552,1.6351,1
7.2526,1.6536,1.6456,1
7.2526,1.6528,1.6440,1
7.2526,1.6544,1.6335,1
7.2526,1.6560,1.6303,1
7.2526,1.6560,1.6206,1
7.2526,1.6520,1.6270,1
7.2526,1.6520,1.6335,1
7.2526,1.6512,1.6456,1
7.2526,1.6512,1.6512,1
7.2526,1.6488,1.6311,1
7.2526,1.6609,1.6190,1
7.2526,1.6552,1.6278,1
7.2526,1.6536,1.6399,1
7.2526,1.6568,1.6327,1
7.2526,1.6560,1.6319,1
7.2526,1.6472,1.6254,1
7.2526,1.6496,1.6149,1
7.2526,1.6520,1.6222,1
7.2526,1.6423,1.6125,1
7.2526,1.6399,1.6174,1
7.2526,1.6327,1.6198,1
7.2526,1.6399,1.6149,1
7.2526,1.6367,1.6117,1
7.2526,1.6415,1.6125,1
7.2526,1.6472,1.6174,1
7.2526,1.6520,1.6246,1
7.2526,1.6520,1.6399,1
7.2526,1.6544,1.6391,1
7.2526,1.6601,1.6649,1
7.2526,1.6577,1.6786,1
7.2526,1.6568,1.6770,1
7.2526,1.6593,1.6907,1
7.2526,1.6617,1.6931,1
7.3000,1.6544,1.7004,1
7.3000,1.6488,1.7100,1
7.3000,1.6488,1.6979,1
7.3000,1.6432,1.6842,1
7.3000,1.6432,1.6794,1
7.3000,1.6480,1.6649,1
7.3000,1.6448,1.6617,1
7.3000,1.6432,1.6617,1
7.3000,1.6440,1.6520,1
7.3000,1.6399,1.6423,1
7.3000,1.6383,1.6375,1
7.3000,1.6440,1.6432,1
7.3000,1.6528,1.6472,1
7.3000,1.6536,1.6560,1
7.3000,1.6520,1.6399,1
7.3000,1.6552,1.6367,1
7.3000,1.6585,1.6464,1
7.3000,1.6536,1.6649,1
7.3000,1.6536,1.6657,1
7.3000,1.6568,1.6907,1
7.3000,1.6585,1.6722,1
7.3000,1.6536,1.6544,1
7.3000,1.6528,1.6560,1
7.3000,1.6593,1.6432,1
7.3000,1.6560,1.6705,1
7.3000,1.6560,1.7149,1
7.3000,1.6577,1.7004,1
7.3000,1.6601,1.6778,1
7.3000,1.6552,1.6778,1
7.3000,1.6585,1.6625,1
7.3000,1.6536,1.6810,1
7.3000,1.6536,1.6851,1
7.3000,1.6528,1.6665,1
7.3000,1.6512,1.6746,1
7.3000,1.6536,1.6520,1
7.3000,1.6480,1.6125,1
7.3000,1.6496,1.6109,1
7.3000,1.6528,1.6182,1
7.3000,1.6488,1.6270,1
7.3000,1.6464,1.6303,1
7.3000,1.6520,1.6270,1
7.3000,1.6512,1.6230,1
7.3000,1.6480,1.6504,1
7.3000,1.6504,1.6464,1
7.3000,1.6536,1.6705,1
7.3000,1.6552,1.6705,1
7.3000,1.6520,1.6762,1
7.3000,1.6528,1.6722,1
7.3000,1.6552,1.6665,1
7.3000,1.6568,1.6665,1
7.3000,1.6577,1.6665,1
7.3000,1.6568,1.6689,1
7.3000,1.6536,1.6399,1
7.3000,1.6448,1.6423,1
7.3000,1.6440,1.6270,1
7.3000,1.6423,1.6166,1
7.3000,1.6512,1.6230,1
7.3000,1.6504,1.6375,1
7.3000,1.6528,1.6448,1
7.3000,1.6464,1.6407,1
7.3000,1.6440,1.6391,1
7.3000,1.6464,1.6399,1
7.3000,1.6472,1.6423,1
7.3000,1.6488,1.6415,1
7.3000,1.6480,1.6367,1
7.3000,1.6544,1.6367,1
7.3000,1.6440,1.6149,1
7.3000,1.6480,1.6101,1
7.3000,1.6568,1.6004,1
7.3000,1.6617,1.6037,1
7.3000,1.6625,1.6101,1
7.3000,1.6633,1.6069,1
7.3000,1.6681,1.6238,1
7.3000,1.6681,1.6222,1
7.3000,1.6673,1.6109,1
7.3000,1.6665,1.6125,1
7.3000,1.6681,1.6262,1
7.3000,1.6625,1.6270,1
7.3000,1.6577,1.6174,1
7.3000,1.6585,1.5980,1
7.3000,1.6617,1.6174,1
7.3000,1.6609,1.6222,1
7.3000,1.6609,1.6351,1
7.3000,1.6617,1.6335,1
7.3000,1.6593,1.6560,1
7.3000,1.6601,1.6552,1
7.3000,1.6617,1.6496,1
7.3000,1.6633,1.6391,1
7.3000,1.6601,1.6560,1
7.3000,1.6641,1.6681,1
7.3000,1.6609,1.6464,1
7.3000,1.6601,1.6448,1
7.3000,1.6593,1.6319,1
7.3000,1.6625,1.6423,1
7.3000,1.6617,1.6343,1
7.3476,1.6593,1.6238,1
7.3476,1.6601,1.6069,1
7.3476,1.6568,1.6125,1
7.3476,1.6568,1.6021,1
7.3476,1.6593,1.5884,1
7.3476,1.6577,1.5892,1
7.3476,1.6577,1.5956,1
7.3476,1.6601,1.6133,1
7.3476,1.6609,1.6077,1
7.3476,1.6609,1.6093,1
7.3476,1.6593,1.6472,1
7.3476,1.6585,1.6673,1
7.3476,1.6609,1.6673,1
7.3476,1.6593,1.6714,1
7.3476,1.6512,1.6867,1
7.3476,1.6577,1.6681,1
7.3476,1.6593,1.6625,1
7.3476,1.6536,1.6488,1
7.3476,1.6552,1.6448,1
7.3476,1.6577,1.6423,1
7.3476,1.6585,1.6278,1
7.3476,1.6577,1.6214,1
7.3476,1.6609,1.6117,1
7.3476,1.6609,1.6085,1
7.3476,1.6585,1.5988,1
7.3476,1.6633,1.6270,1
7.3476,1.6657,1.6278,1
7.3476,1.6681,1.6230,1
7.3476,1.6649,1.6270,1
7.3476,1.6665,1.6166,1
7.3476,1.6633,1.6021,1
7.3476,1.6665,1.6190,1
7.3476,1.6633,1.6262,1
7.3476,1.6641,1.6335,1
7.3476,1.6649,1.6359,1
7.3476,1.6585,1.6198,1
7.3476,1.6617,1.6133,1
7.3476,1.6585,1.6149,1
7.3476,1.6577,1.6496,1
7.3476,1.6601,1.6625,1
7.3476,1.6625,1.6577,1
7.3476,1.6593,1.6375,1
7.3476,1.6641,1.6295,1
7.3476,1.6697,1.6359,1
7.3476,1.6738,1.6456,1
7.3476,1.6673,1.6464,1
7.3476,1.6665,1.6577,1
7.3476,1.6665,1.6577,1
7.3476,1.6649,1.6190,1
7.3476,1.6617,1.6133,1
7.3476,1.6633,1.6190,1
7.3476,1.6609,1.6278,1
7.3476,1.6568,1.6343,1
7.3476,1.6327,1.6270,1
7.3476,1.6327,1.6238,1
7.3476,1.6383,1.6149,1
7.3476,1.6343,1.6174,1
7.3476,1.6391,1.6254,1
7.3476,1.6440,1.6327,1
7.3476,1.6423,1.6480,1
7.3476,1.6448,1.6560,1
7.3476,1.6480,1.6577,1
7.3476,1.6456,1.6415,1
7.3476,1.6649,1.6367,1
7.3476,1.6657,1.6488,1
7.3476,1.6617,1.6649,1
7.3476,1.6585,1.6577,1
7.3476,1.6560,1.6536,1
7.3476,1.6512,1.6448,1
7.3476,1.6456,1.6423,1
7.3476,1.6391,1.6407,1
7.3476,1.6383,1.6440,1
7.3476,1.6383,1.6512,1
7.3476,1.6351,1.6560,1
7.3476,1.6375,1.6440,1
7.3476,1.6399,1.6303,1
7.3476,1.6367,1.6440,1
7.3476,1.6383,1.6536,1
7.3476,1.6440,1.6520,1
7.3476,1.6464,1.6512,1
7.3476,1.6496,1.6335,1
7.3476,1.6504,1.6319,1
7.3476,1.6520,1.6480,1
7.3476,1.6528,1.6552,1
7.3476,1.6456,1.6794,1
7.3476,1.6520,1.6770,1
7.3476,1.6560,1.6705,1
7.3476,1.6504,1.6705,1
7.3476,1.6520,1.6705,1
7.3476,1.6544,1.6641,1
7.3476,1.6480,1.6778,1
7.3476,1.6464,1.6689,1
7.3476,1.6480,1.6633,1
7.3476,1.6488,1.6536,1
7.3476,1.6488,1.6303,1
7.3955,1.6456,1.6464,1
7.3955,1.6472,1.6464,1
7.3955,1.6456,1.6335,1
7.3955,1.6432,1.6375,1
7.3955,1.6488,1.6399,1
7.3955,1.6536,1.6367,1
7.3955,1.6528,1.6359,1
7.3955,1.6440,1.6432,1
7.3955,1.6480,1.6440,1
7.3955,1.6464,1.6303,1
7.3955,1.6488,1.6230,1
7.3955,1.6480,1.6166,1
7.3955,1.6504,1.6214,1
7.3955,1.6440,1.6319,1
7.3955,1.6423,1.6311,1
7.3955,1.6423,1.6488,1
7.3955,1.6391,1.6625,1
7.3955,1.6480,1.6528,1
7.3955,1.6440,1.6504,1
7.3955,1.6432,1.6190,1
7.3955,1.6367,1.6254,1
7.3955,1.6391,1.6230,1
7.3955,1.6383,1.6295,1
7.3955,1.6238,1.6149,1
7.3955,1.6214,1.5948,1
7.3955,1.6278,1.5932,1
7.3955,1.6319,1.5875,1
7.3955,1.6311,1.5996,1
7.3955,1.6286,1.5835,1
7.3955,1.6335,1.6222,1
7.3955,1.6359,1.6230,1
7.3955,1.6343,1.6343,1
7.3955,1.6383,1.6286,1
7.3955,1.6568,1.6343,1
7.3955,1.6544,1.6375,1
7.3955,1.6496,1.6407,1
7.3955,1.6480,1.6383,1
7.3955,1.6440,1.6319,1
7.3955,1.6456,1.6375,1
7.3955,1.6456,1.6440,1
7.3955,1.6423,1.6295,1
7.3955,1.6391,1.6254,1
7.3955,1.6399,1.6335,1
7.3955,1.6423,1.6375,1
7.3955,1.6391,1.6641,1
7.3955,1.6399,1.6601,1
7.3955,1.6440,1.6577,1
7.3955,1.6480,1.6609,1
7.3955,1.6480,1.6818,1
7.3955,1.6544,1.6923,1
7.3955,1.6544,1.6955,1
7.3955,1.6536,1.6979,1
7.3955,1.6496,1.6818,1
7.3955,1.6512,1.6778,1
7.3955,1.6544,1.6657,1
7.3955,1.6520,1.6649,1
7.3955,1.6512,1.6617,1
7.3955,1.6528,1.6552,1
7.3955,1.6536,1.6480,1
7.3955,1.6448,1.6423,1
7.3955,1.6504,1.6633,1
7.3955,1.6504,1.6520,1
7.3955,1.6512,1.6601,1
7.3955,1.6528,1.6689,1
7.3955,1.6520,1.6730,1
7.3955,1.6528,1.6512,1
7.3955,1.6520,1.6730,1
7.3955,1.6577,1.6923,1
7.3955,1.6577,1.6947,1
7.3955,1.6593,1.6770,1
7.3955,1.6585,1.6665,1
7.3955,1.6625,1.6625,1
7.3955,1.6617,1.6657,1
7.3955,1.6552,1.6528,1
7.3955,1.6593,1.6504,1
7.3955,1.6593,1.6601,1
7.3955,1.6552,1.6464,1
7.3955,1.6504,1.6295,1
7.3955,1.6536,1.6214,1
7.3955,1.6544,1.6278,1
7.3955,1.6496,1.6214,1
7.3955,1.6488,1.6254,1
7.3955,1.6496,1.6198,1
7.3955,1.6512,1.6262,1
7.3955,1.6472,1.6262,1
7.3955,1.6496,1.6278,1
7.3955,1.6504,1.6141,1
7.3955,1.6488,1.6077,1
7.3955,1.6448,1.5956,1
7.3955,1.6440,1.5996,1
7.3955,1.6456,1.5956,1
7.3955,1.6472,1.5980,1
7.3955,1.6480,1.5964,1
7.3955,1.6480,1.5972,1
7.3955,1.6488,1.6037,1
7.3955,1.6520,1.6109,1
7.4429,1.6528,1.6158,1
7.4429,1.6488,1.6214,1
7.4429,1.6504,1.6262,1
7.4429,1.6512,1.6278,1
7.4429,1.6504,1.6303,1
7.4429,1.6496,1.6270,1
7.4429,1.6512,1.6182,1
7.4429,1.6480,1.6262,1
7.4429,1.6464,1.6182,1
7.4429,1.6448,1.6327,1
7.4429,1.6480,1.6295,1
7.4429,1.6504,1.6262,1
7.4429,1.6496,1.6391,1
7.4429,1.6520,1.6423,1
7.4429,1.6536,1.6440,1
7.4429,1.6464,1.6488,1
7.4429,1.6448,1.6641,1
7.4429,1.6488,1.6488,1
7.4429,1.6480,1.6625,1
7.4429,1.6440,1.6432,1
7.4429,1.6432,1.6568,1
7.4429,1.6432,1.6577,1
7.4429,1.6415,1.6601,1
7.4429,1.6440,1.6568,1
7.4429,1.6440,1.6456,1
7.4429,1.6472,1.6456,1
7.4429,1.6448,1.6383,1
7.4429,1.6472,1.6448,1
7.4429,1.6488,1.6303,1
7.4429,1.6472,1.6343,1
7.4429,1.6448,1.6504,1
7.4429,1.6488,1.6601,1
7.4429,1.6480,1.6601,1
7.4429,1.6440,1.6842,1
7.4429,1.6488,1.6907,1
7.4429,1.6488,1.6939,1
7.4429,1.6488,1.7076,1
7.4429,1.6496,1.7020,1
7.4429,1.6528,1.7004,1
7.4429,1.6544,1.7004,1
7.4429,1.6520,1.6842,1
7.4429,1.6512,1.6802,1
7.4429,1.6512,1.6754,1
7.4429,1.6504,1.6560,1
7.4429,1.6472,1.6633,1
7.4429,1.6512,1.6609,1
7.4429,1.6512,1.6415,1
7.4429,1.6423,1.6448,1
7.4429,1.6415,1.6407,1
7.4429,1.6512,1.6335,1
7.4429,1.6528,1.6311,1
7.4429,1.6496,1.6399,1
7.4429,1.6544,1.6327,1
7.4429,1.6536,1.6254,1
7.4429,1.6496,1.6198,1
7.4429,1.6520,1.6238,1
7.4429,1.6512,1.6270,1
7.4429,1.6560,1.6399,1
7.4429,1.6536,1.6520,1
7.4429,1.6448,1.6528,1
7.4429,1.6456,1.6577,1
7.4429,1.6448,1.6496,1
7.4429,1.6488,1.6544,1
7.4429,1.6496,1.6552,1
7.4429,1.6504,1.6633,1
7.4429,1.6456,1.6593,1
7.4429,1.6488,1.6665,1
7.4429,1.6456,1.6496,1
7.4429,1.6415,1.6351,1
7.4429,1.6383,1.6295,1
7.4429,1.6399,1.6311,1
7.4429,1.6391,1.6238,1
7.4429,1.6359,1.6278,1
7.4429,1.6391,1.6262,1
7.4429,1.6166,1.6174,1
7.4429,1.6182,1.6141,1
7.4429,1.6158,1.6077,1
7.4429,1.6230,1.6061,1
7.4429,1.6303,1.6198,1
7.4429,1.6327,1.6375,1
7.4429,1.6351,1.6432,1
7.4429,1.6359,1.6448,1
7.4429,1.6311,1.6399,1
7.4429,1.6286,1.6488,1
7.4429,1.6544,1.6577,1
7.4429,1.6552,1.6480,1
7.4429,1.6544,1.6609,1
7.4429,1.6585,1.6528,1
7.4429,1.6512,1.6552,1
7.4429,1.6472,1.6568,1
7.4429,1.6407,1.6488,1
7.4429,1.6432,1.6560,1
7.4429,1.6399,1.6544,1
7.4429,1.6367,1.6496,1
7.4429,1.6375,1.6464,1
7.4903,1.6351,1.6665,1
7.4903,1.6367,1.6601,1
7.4903,1.6295,1.6794,1
7.4903,1.6327,1.6681,1
7.4903,1.6367,1.6585,1
7.4903,1.6383,1.6568,1
7.4903,1.6440,1.6585,1
7.4903,1.6488,1.6665,1
7.4903,1.6496,1.6714,1
7.4903,1.6456,1.6665,1
7.4903,1.6496,1.6593,1
7.4903,1.6496,1.6601,1
7.4903,1.6504,1.6448,1
7.4903,1.6560,1.6641,1
7.4903,1.6601,1.6593,1
7.4903,1.6617,1.6512,1
7.4903,1.6560,1.6520,1
7.4903,1.6585,1.6415,1
7.4903,1.6577,1.6585,1
7.4903,1.6577,1.6464,1
7.4903,1.6552,1.6448,1
7.4903,1.6520,1.6456,1
7.4903,1.6520,1.6528,1
7.4903,1.6480,1.6552,1
7.4903,1.6504,1.6625,1
7.4903,1.6440,1.6649,1
7.4903,1.6456,1.6504,1
7.4903,1.6448,1.6633,1
7.4903,1.6480,1.6391,1
7.4903,1.6464,1.6730,1
7.4903,1.6423,1.6794,1
7.4903,1.6480,1.6560,1
7.4903,1.6448,1.6536,1
7.4903,1.6423,1.6303,1
7.4903,1.6391,1.6230,1
7.4903,1.6464,1.6367,1
7.4903,1.6432,1.6351,1
7.4903,1.6399,1.6399,1
7.4903,1.6448,1.6528,1
7.4903,1.6464,1.6359,1
7.4903,1.6464,1.6367,1
7.4903,1.6448,1.6577,1
7.4903,1.6536,1.6504,1
7.4903,1.6520,1.6585,1
7.4903,1.6488,1.6585,1
7.4903,1.6520,1.6423,1
7.4903,1.6496,1.6585,1
7.4903,1.6512,1.6520,1
7.4903,1.6480,1.6351,1
7.4903,1.6480,1.6391,1
7.4903,1.6496,1.6351,1
7.4903,1.6488,1.6246,1
7.4903,1.6496,1.6423,1
7.4903,1.6496,1.6399,1
7.4903,1.6480,1.6423,1
7.4903,1.6464,1.6423,1
7.4903,1.6480,1.6311,1
7.4903,1.6496,1.6262,1
7.4903,1.6488,1.6311,1
7.4903,1.6520,1.6270,1
7.4903,1.6520,1.6230,1
7.4903,1.6520,1.6295,1
7.4903,1.6480,1.6286,1
7.4903,1.6560,1.6295,1
7.4903,1.6593,1.6327,1
7.4903,1.6568,1.6456,1
7.4903,1.6609,1.6520,1
7.4903,1.6585,1.6536,1
7.4903,1.6593,1.6552,1
7.4903,1.6536,1.6440,1
7.4903,1.6568,1.6407,1
7.4903,1.6552,1.6423,1
7.4903,1.6528,1.6343,1
7.4903,1.6512,1.6327,1
7.4903,1.6528,1.6262,1
7.4903,1.6528,1.6335,1
7.4903,1.6488,1.6262,1
7.4903,1.6568,1.6214,1
7.4903,1.6520,1.6254,1
7.4903,1.6488,1.6319,1
7.4903,1.6488,1.6351,1
7.4903,1.6512,1.6391,1
7.4903,1.6440,1.6327,1
7.4903,1.6415,1.6496,1
7.4903,1.6423,1.6593,1
7.4903,1.6407,1.6440,1
7.4903,1.6407,1.6512,1
7.4903,1.6367,1.6544,1
7.4903,1.6407,1.6480,1
7.4903,1.6464,1.6432,1
7.4903,1.6423,1.6520,1
7.4903,1.6456,1.6593,1
7.4903,1.6536,1.6770,1
7.4903,1.6536,1.6560,1
7.4903,1.6488,1.6585,1
7.5376,1.6520,1.6673,1
7.5376,1.6480,1.6625,1
7.5376,1.6432,1.6657,1
7.5376,1.6448,1.6665,1
7.5376,1.6432,1.6714,1
7.5376,1.6407,1.6633,1
7.5376,1.6375,1.6528,1
7.5376,1.6407,1.6488,1
7.5376,1.6359,1.6568,1
7.5376,1.6351,1.6593,1
7.5376,1.6351,1.6560,1
7.5376,1.6375,1.6625,1
7.5376,1.6383,1.6617,1
7.5376,1.6375,1.6705,1
7.5376,1.6399,1.6705,1
7.5376,1.6423,1.6802,1
7.5376,1.6399,1.6681,1
7.5376,1.6415,1.6681,1
7.5376,1.6423,1.6472,1
7.5376,1.6415,1.6448,1
7.5376,1.6415,1.6560,1
7.5376,1.6480,1.6633,1
7.5376,1.6456,1.6778,1
7.5376,1.6391,1.6794,1
7.5376,1.6399,1.6939,1
7.5376,1.6423,1.6770,1
7.5376,1.6415,1.6834,1
7.5376,1.6367,1.6738,1
7.5376,1.6423,1.6947,1
7.5376,1.6448,1.6859,1
7.5376,1.6303,1.6649,1
7.5376,1.6278,1.6512,1
7.5376,1.6311,1.6335,1
7.5376,1.6343,1.6278,1
7.5376,1.6286,1.6246,1
7.5376,1.6327,1.6375,1
7.5376,1.6383,1.6359,1
7.5376,1.6375,1.6472,1
7.5376,1.6391,1.6528,1
7.5376,1.6375,1.6568,1
7.5376,1.6464,1.6601,1
7.5376,1.6448,1.6496,1
7.5376,1.6480,1.6480,1
7.5376,1.6448,1.6464,1
7.5376,1.6488,1.6456,1
7.5376,1.6432,1.6472,1
7.5376,1.6391,1.6657,1
7.5376,1.6311,1.6593,1
7.5376,1.6061,1.6504,1
7.5376,1.6343,1.6399,1
7.5376,1.6359,1.6512,1
7.5376,1.6343,1.6609,1
7.5376,1.6319,1.6577,1
7.5376,1.6391,1.6552,1
7.5376,1.6359,1.6464,1
7.5376,1.6335,1.6407,1
7.5376,1.6383,1.6133,1
7.5376,1.6456,1.6037,1
7.5376,1.6681,1.6166,1
7.5376,1.6432,1.6109,1
7.5376,1.6440,1.5964,1
7.5376,1.6456,1.5867,1
7.5387,1.6432,1.5996,1
7.5387,1.6262,1.5940,1
7.5387,1.6303,1.6021,1
7.5387,1.6319,1.5940,1
7.5387,1.6295,1.6101,1
7.5387,1.6327,1.6206,1
7.5387,1.6295,1.6101,1
7.5387,1.6303,1.6286,1
7.5387,1.6359,1.6327,1
7.5387,1.6359,1.6423,1
7.5387,1.6367,1.6238,1
7.5387,1.6544,1.6359,1
7.5387,1.6552,1.6351,1
7.5387,1.6536,1.6375,1
7.5387,1.6496,1.6464,1
7.5387,1.6552,1.6464,1
7.5387,1.6568,1.6472,1
7.5387,1.6512,1.6480,1
7.5387,1.6480,1.6488,1
7.5387,1.6512,1.6351,1
7.5387,1.6496,1.6415,1
7.5387,1.6432,1.6286,1
7.5387,1.6440,1.6109,1
7.5387,1.6480,1.6182,1
7.5387,1.6496,1.6206,1
7.5387,1.6456,1.6295,1
7.5387,1.6464,1.6206,1
7.5387,1.6488,1.6278,1
7.5387,1.6456,1.6230,1
7.5387,1.6536,1.6399,1
7.5387,1.6552,1.6440,1
7.5387,1.6568,1.6456,1
7.5850,1.6520,1.6520,1
7.5850,1.6552,1.6577,1
7.5850,1.6625,1.6496,1
7.5850,1.6568,1.6407,1
7.5850,1.6633,1.6504,1
7.5850,1.6641,1.6399,1
7.5850,1.6681,1.6464,1
7.5850,1.6560,1.6448,1
7.5850,1.6585,1.6520,1
7.5850,1.6585,1.6496,1
7.5850,1.6577,1.6689,1
7.5850,1.6625,1.6544,1
7.5850,1.6552,1.6504,1
7.5850,1.6536,1.6399,1
7.5850,1.6448,1.6480,1
7.5850,1.6520,1.6432,1
7.5850,1.6496,1.6448,1
7.5850,1.6520,1.6407,1
7.5850,1.6593,1.6432,1
7.5850,1.6617,1.6496,1
7.5850,1.6617,1.6335,1
7.5850,1.6504,1.6440,1
7.5850,1.6528,1.6432,1
7.5850,1.6568,1.6577,1
7.5850,1.6552,1.6456,1
7.5850,1.6528,1.6375,1
7.5850,1.6560,1.6319,1
7.5850,1.6528,1.6286,1
7.5850,1.6480,1.6278,1
7.5850,1.6504,1.6158,1
7.5850,1.6480,1.6045,1
7.5850,1.6496,1.5980,1
7.5850,1.6480,1.6230,1
7.5850,1.6472,1.6254,1
7.5850,1.6496,1.6343,1
7.5850,1.6383,1.6432,1
7.5850,1.6407,1.6440,1
7.5850,1.6407,1.6552,1
7.5850,1.6415,1.6440,1
7.5850,1.6367,1.6625,1
7.5850,1.6423,1.6778,1
7.5850,1.6448,1.6802,1
7.5850,1.6464,1.6762,1
7.5850,1.6496,1.6601,1
7.5850,1.6480,1.6480,1
7.5850,1.6504,1.6560,1
7.5850,1.6480,1.6617,1
7.5850,1.6496,1.6681,1
7.5850,1.6415,1.6730,1
7.5850,1.6448,1.6738,1
7.5850,1.6472,1.6915,1
7.5850,1.6423,1.6883,1
7.5850,1.6375,1.6697,1
7.5850,1.6335,1.6714,1
7.5850,1.6359,1.6738,1
7.5850,1.6367,1.6657,1
7.5850,1.6367,1.6730,1
7.5850,1.6391,1.6617,1
7.5850,1.6440,1.6633,1
7.5850,1.6407,1.6657,1
7.5850,1.6351,1.6480,1
7.5850,1.6407,1.6585,1
7.5850,1.6440,1.6673,1
7.5850,1.6464,1.6722,1
7.5850,1.6480,1.6714,1
7.5850,1.6488,1.6875,1
7.5850,1.6456,1.6818,1
7.5850,1.6464,1.6915,1
7.5850,1.6456,1.6963,1
7.5850,1.6464,1.6851,1
7.5850,1.6456,1.6859,1
7.5850,1.6456,1.6867,1
7.5850,1.6464,1.6867,1
7.5850,1.6456,1.6834,1
7.5850,1.6432,1.6851,1
7.5850,1.6472,1.6778,1
7.5850,1.6464,1.6794,1
7.5850,1.6415,1.6762,1
7.5850,1.6423,1.6689,1
7.5850,1.6432,1.6730,1
7.5850,1.6407,1.6657,1
7.5850,1.6423,1.6657,1
7.5850,1.6448,1.6544,1
7.5850,1.6407,1.6544,1
7.5850,1.6367,1.6593,1
7.5850,1.6415,1.6609,1
7.5850,1.6448,1.6520,1
7.5850,1.6423,1.6415,1
7.5850,1.6415,1.6472,1
7.5850,1.6432,1.6407,1
7.5850,1.6423,1.6649,1
7.5850,1.6367,1.6585,1
7.5850,1.6359,1.6585,1
7.5850,1.6407,1.6528,1
7.5850,1.6432,1.6577,1
7.6318,1.6399,1.6552,1
7.6318,1.6440,1.6585,1
7.6318,1.6464,1.6673,1
7.6318,1.6464,1.6601,1
7.6318,1.6480,1.6657,1
7.6318,1.6536,1.6319,1
7.6318,1.6568,1.6423,1
7.6318,1.6536,1.6496,1
7.6318,1.6512,1.6681,1
7.6318,1.6488,1.6552,1
7.6318,1.6423,1.6552,1
7.6318,1.6407,1.6577,1
7.6318,1.6399,1.6480,1
7.6318,1.6367,1.6375,1
7.6318,1.6303,1.6343,1
7.6318,1.6343,1.6399,1
7.6318,1.6351,1.6246,1
7.6318,1.6351,1.6182,1
7.6318,1.6415,1.6029,1
7.6318,1.6448,1.6278,1
7.6318,1.6472,1.6246,1
7.6318,1.6448,1.6278,1
7.6318,1.6488,1.6319,1
7.6318,1.6520,1.6432,1
7.6318,1.6536,1.6464,1
7.6318,1.6488,1.6504,1
7.6318,1.6512,1.6641,1
7.6318,1.6496,1.6601,1
7.6318,1.6399,1.6665,1
7.6318,1.6391,1.6407,1
7.6318,1.6407,1.6383,1
7.6318,1.6375,1.6278,1
7.6318,1.6383,1.6335,1
7.6318,1.6391,1.6375,1
7.6318,1.6375,1.6375,1
7.6318,1.6383,1.6440,1
7.6318,1.6432,1.6278,1
7.6318,1.6472,1.6375,1
7.6318,1.6496,1.6448,1
7.6318,1.6520,1.6552,1
7.6318,1.6568,1.6681,1
7.6318,1.6568,1.6754,1
7.6318,1.6528,1.6714,1
7.6318,1.6649,1.6601,1
7.6318,1.6786,1.6544,1
7.6318,1.6714,1.6375,1
7.6318,1.6617,1.6488,1
7.6318,1.6609,1.6504,1
7.6318,1.6560,1.6383,1
7.6318,1.6544,1.6585,1
7.6318,1.6528,1.6488,1
7.6318,1.6577,1.6432,1
7.6318,1.6568,1.6351,1
7.6318,1.6432,1.6327,1
7.6318,1.6367,1.6649,1
7.6318,1.6415,1.6722,1
7.6318,1.6432,1.6593,1
7.6318,1.6472,1.6544,1
7.6318,1.6552,1.6593,1
7.6318,1.6544,1.6496,1
7.6318,1.6528,1.6552,1
7.6318,1.6528,1.6568,1
7.6318,1.6544,1.6609,1
7.6318,1.6560,1.6762,1
7.6318,1.6536,1.6601,1
7.6318,1.6544,1.6633,1
7.6318,1.6528,1.6625,1
7.6318,1.6496,1.6641,1
7.6318,1.6544,1.6609,1
7.6318,1.6528,1.6536,1
7.6318,1.6496,1.6448,1
7.6318,1.6496,1.6456,1
7.6318,1.6520,1.6504,1
7.6318,1.6472,1.6383,1
7.6318,1.6464,1.6375,1
7.6318,1.6488,1.6166,1
7.6318,1.6496,1.6238,1
7.6318,1.6464,1.6174,1
7.6318,1.6440,1.6295,1
7.6318,1.6440,1.6174,1
7.6318,1.6327,1.6182,1
7.6318,1.6319,1.6278,1
7.6318,1.6359,1.6222,1
7.6318,1.6367,1.6423,1
7.6318,1.6367,1.6319,1
7.6318,1.6375,1.6657,1
7.6318,1.6367,1.6673,1
7.6318,1.6351,1.6665,1
7.6318,1.6311,1.6544,1
7.6318,1.6351,1.6512,1
7.6318,1.6496,1.6472,1
7.6318,1.6480,1.6577,1
7.6318,1.6456,1.6568,1
7.6318,1.6456,1.6415,1
7.6790,1.6448,1.6464,1
7.6790,1.6407,1.6456,1
7.6790,1.6432,1.6464,1
7.6790,1.6448,1.6359,1
7.6790,1.6391,1.6399,1
7.6790,1.6375,1.6432,1
7.6790,1.6407,1.6464,1
7.6790,1.6423,1.6383,1
7.6790,1.6399,1.6423,1
7.6790,1.6448,1.6568,1
7.6790,1.6440,1.6665,1
7.6790,1.6423,1.6488,1
7.6790,1.6480,1.6464,1
7.6790,1.6520,1.6689,1
7.6790,1.6552,1.6697,1
7.6790,1.6504,1.6665,1
7.6790,1.6480,1.6568,1
7.6790,1.6464,1.6496,1
7.6790,1.6423,1.6512,1
7.6790,1.6399,1.6448,1
7.6790,1.6415,1.6270,1
7.6790,1.6230,1.6230,1
7.6790,1.6182,1.6254,1
7.6790,1.6206,1.6149,1
7.6790,1.6286,1.6149,1
7.6790,1.6319,1.6278,1
7.6790,1.6319,1.6399,1
7.6790,1.6286,1.6343,1
7.6790,1.6327,1.6399,1
7.6790,1.6311,1.6351,1
7.6790,1.6327,1.6391,1
7.6790,1.6520,1.6512,1
7.6790,1.6512,1.6488,1
7.6790,1.6448,1.6496,1
7.6790,1.6399,1.6399,1
7.6790,1.6367,1.6399,1
7.6790,1.6335,1.6375,1
7.6790,1.6383,1.6303,1
7.6790,1.6359,1.6174,1
7.6790,1.6327,1.6101,1
7.6790,1.6335,1.6311,1
7.6790,1.6367,1.6198,1
7.6790,1.6351,1.6158,1
7.6790,1.6359,1.6166,1
7.6790,1.6383,1.6295,1
7.6790,1.6415,1.6303,1
7.6790,1.6440,1.6399,1
7.6790,1.6488,1.6480,1
7.6790,1.6488,1.6544,1
7.6790,1.6480,1.6665,1
7.6790,1.6504,1.6375,1
7.6790,1.6488,1.6552,1
7.6790,1.6504,1.6577,1
7.6790,1.6496,1.6544,1
7.6790,1.6423,1.6432,1
7.6790,1.6440,1.6327,1
7.6790,1.6415,1.6222,1
7.6790,1.6327,1.6198,1
7.6790,1.6407,1.6343,1
7.6790,1.6456,1.6327,1
7.6790,1.6391,1.6351,1
7.6790,1.6480,1.6520,1
7.6790,1.6278,1.6504,1
7.6790,1.6311,1.6496,1
7.6790,1.6319,1.6593,1
7.6790,1.6407,1.6697,1
7.6790,1.6480,1.6673,1
7.6790,1.6577,1.6738,1
7.6790,1.6528,1.6633,1
7.6790,1.6536,1.6552,1
7.6790,1.6520,1.6528,1
7.6790,1.6415,1.6303,1
7.6790,1.6673,1.6262,1
7.6790,1.6625,1.6391,1
7.6790,1.6633,1.6399,1
7.6790,1.6536,1.6488,1
7.6790,1.6512,1.6552,1
7.6790,1.6375,1.6577,1
7.6790,1.6343,1.6673,1
7.6790,1.6375,1.6722,1
7.6790,1.6407,1.6875,1
7.6790,1.6391,1.6697,1
7.6790,1.6335,1.6834,1
7.6790,1.6383,1.6778,1
7.6790,1.6399,1.6568,1
7.6790,1.6383,1.6399,1
7.6790,1.6383,1.6415,1
7.6790,1.6432,1.6472,1
7.6790,1.6456,1.6343,1
7.6790,1.6423,1.6432,1
7.6790,1.6448,1.6448,1
7.6790,1.6480,1.6649,1
7.6790,1.6472,1.6649,1
7.6790,1.6496,1.6657,1
7.7270,1.6472,1.6834,1
7.7270,1.6496,1.6859,1
7.7270,1.6472,1.6802,1
7.7270,1.6520,1.6818,1
7.7270,1.6528,1.6907,1
7.7270,1.6552,1.6810,1
7.7270,1.6552,1.6786,1
7.7270,1.6552,1.6697,1
7.7270,1.6552,1.6681,1
7.7270,1.6528,1.6633,1
7.7270,1.6568,1.6601,1
7.7270,1.6577,1.6738,1
7.7270,1.6585,1.6609,1
7.7270,1.6552,1.6480,1
7.7270,1.6544,1.6383,1
7.7270,1.6512,1.6480,1
7.7270,1.6496,1.6375,1
7.7270,1.6520,1.6415,1
7.7270,1.6528,1.6552,1
7.7270,1.6512,1.6560,1
7.7270,1.6512,1.6585,1
7.7270,1.6568,1.6488,1
7.7270,1.6560,1.6601,1
7.7270,1.6488,1.6464,1
7.7270,1.6512,1.6432,1
7.7270,1.6560,1.6407,1
7.7270,1.6577,1.6746,1
7.7270,1.6585,1.6899,1
7.7270,1.6577,1.6673,1
7.7270,1.6697,1.6649,1
7.7270,1.6665,1.6617,1
7.7270,1.6633,1.6496,1
7.7270,1.6633,1.6504,1
7.7270,1.6665,1.6649,1
7.7270,1.6649,1.6633,1
7.7270,1.6609,1.6625,1
7.7270,1.6585,1.6432,1
7.7270,1.6544,1.6327,1
7.7270,1.6593,1.6496,1
7.7270,1.6464,1.6577,1
7.7270,1.6472,1.6504,1
7.7270,1.6488,1.6528,1
7.7270,1.6504,1.6577,1
7.7270,1.6536,1.6568,1
7.7270,1.6512,1.6705,1
7.7270,1.6536,1.6657,1
7.7270,1.6544,1.6609,1
7.7270,1.6577,1.6794,1
7.7270,1.6552,1.6633,1
7.7270,1.6601,1.6577,1
7.7270,1.6593,1.6681,1
7.7270,1.6552,1.6899,1
7.7270,1.6568,1.6834,1
7.7270,1.6568,1.6842,1
7.7270,1.6568,1.6746,1
7.7270,1.6544,1.6754,1
7.7270,1.6609,1.6705,1
7.7270,1.6577,1.6552,1
7.7270,1.6544,1.6609,1
7.7270,1.6544,1.6673,1
7.7270,1.6552,1.6697,1
7.7270,1.6512,1.6617,1
7.7270,1.6496,1.6842,1
7.7270,1.6496,1.6883,1
7.7270,1.6496,1.6939,1
7.7270,1.6464,1.6883,1
7.7270,1.6456,1.6851,1
7.7270,1.6456,1.6746,1
7.7270,1.6432,1.6738,1
7.7270,1.6415,1.6818,1
7.7270,1.6423,1.6875,1
7.7270,1.6464,1.6802,1
7.7270,1.6456,1.6641,1
7.7270,1.6488,1.6681,1
7.7270,1.6480,1.6633,1
7.7270,1.6496,1.6722,1
7.7270,1.6448,1.6705,1
7.7270,1.6464,1.6794,1
7.7270,1.6464,1.6834,1
7.7270,1.6456,1.6754,1
7.7270,1.6496,1.6657,1
7.7270,1.6464,1.6649,1
7.7270,1.6448,1.6609,1
7.7270,1.6407,1.6633,1
7.7270,1.6432,1.6601,1
7.7270,1.6407,1.6617,1
7.7270,1.6391,1.6786,1
7.7270,1.6448,1.6826,1
7.7270,1.6504,1.6641,1
7.7270,1.6472,1.6714,1
7.7270,1.6464,1.6665,1
7.7270,1.6488,1.6641,1
7.7270,1.6488,1.6609,1
7.7270,1.6480,1.6593,1
7.7270,1.6512,1.6625,1
7.7270,1.6536,1.6593,1
7.7750,1.6520,1.6456,1
7.7750,1.6440,1.6440,1
7.7750,1.6472,1.6609,1
7.7750,1.6472,1.6520,1
7.7750,1.6432,1.6641,1
7.7750,1.6496,1.6714,1
7.7750,1.6480,1.6883,1
7.7750,1.6456,1.6859,1
7.7750,1.6415,1.6641,1
7.7750,1.6432,1.6520,1
7.7750,1.6399,1.6303,1
7.7750,1.6407,1.6270,1
7.7750,1.6391,1.6190,1
7.7750,1.6415,1.6254,1
7.7750,1.6415,1.6286,1
7.7750,1.6359,1.6238,1
7.7750,1.6407,1.6182,1
7.7750,1.6399,1.6125,1
7.7750,1.6367,1.6286,1
7.7750,1.6423,1.6432,1
7.7750,1.6472,1.6689,1
7.7750,1.6456,1.6641,1
7.7750,1.6448,1.6681,1
7.7750,1.6464,1.6391,1
7.7750,1.6464,1.6222,1
7.7750,1.6448,1.6367,1
7.7750,1.6448,1.6166,1
7.7750,1.6488,1.6069,1
7.7750,1.6464,1.6061,1
7.7750,1.6415,1.6012,1
7.7750,1.6407,1.5956,1
7.7750,1.6415,1.5996,1
7.7750,1.6399,1.6012,1
7.7750,1.6456,1.6198,1
7.7750,1.6456,1.6335,1
7.7750,1.6448,1.6190,1
7.7750,1.6423,1.6391,1
7.7750,1.6432,1.6560,1
7.7750,1.6423,1.6609,1
7.7750,1.6399,1.6568,1
7.7750,1.6464,1.6568,1
7.7750,1.6480,1.6375,1
7.7750,1.6456,1.6359,1
7.7750,1.6375,1.6311,1
7.7750,1.6432,1.6303,1
7.7750,1.6456,1.6335,1
7.7750,1.6432,1.6206,1
7.7750,1.6456,1.6182,1
7.7750,1.6512,1.6190,1
7.7750,1.6512,1.6206,1
7.7750,1.6440,1.6311,1
7.7750,1.6464,1.6512,1
7.7750,1.6488,1.6528,1
7.7750,1.6456,1.6367,1
7.7750,1.6456,1.6254,1
7.7750,1.6472,1.6182,1
7.7750,1.6488,1.6351,1
7.7750,1.6456,1.6335,1
7.7750,1.6488,1.6327,1
7.7750,1.6512,1.6327,1
7.7750,1.6488,1.6254,1
7.7750,1.6464,1.6158,1
7.7750,1.6448,1.6238,1
7.7750,1.6448,1.6448,1
7.7750,1.6399,1.6585,1
7.7750,1.6391,1.6617,1
7.7750,1.6399,1.6520,1
7.7750,1.6383,1.6415,1
7.7750,1.6367,1.6399,1
7.7750,1.6359,1.6351,1
7.7750,1.6391,1.6440,1
7.7750,1.6407,1.6681,1
7.7750,1.6448,1.6520,1
7.7750,1.6472,1.6512,1
7.7750,1.6448,1.6432,1
7.7750,1.6432,1.6456,1
7.7750,1.6448,1.6488,1
7.7750,1.6456,1.6641,1
7.7750,1.6423,1.6633,1
7.7750,1.6432,1.6705,1
7.7750,1.6423,1.6625,1
7.7750,1.6423,1.6407,1
7.7750,1.6383,1.6432,1
7.7750,1.6415,1.6432,1
7.7750,1.6415,1.6528,1
7.7750,1.6383,1.6593,1
7.7750,1.6399,1.6593,1
7.7750,1.6415,1.6496,1
7.7750,1.6399,1.6440,1
7.7750,1.6407,1.6448,1
7.7750,1.6407,1.6319,1
7.7750,1.6375,1.6327,1
7.7750,1.6399,1.6456,1
7.7750,1.6415,1.6536,1
7.7750,1.6440,1.6407,1
7.7750,1.6440,1.6351,1
7.8221,1.6423,1.6440,1
7.8221,1.6423,1.6488,1
7.8221,1.6432,1.6560,1
7.8221,1.6415,1.6520,1
7.8221,1.6464,1.6649,1
7.8221,1.6472,1.6762,1
7.8221,1.6440,1.6714,1
7.8221,1.6383,1.6560,1
7.8221,1.6407,1.6633,1
7.8221,1.6423,1.6609,1
7.8221,1.6383,1.6464,1
7.8221,1.6415,1.6528,1
7.8221,1.6440,1.6166,1
7.8221,1.6415,1.6029,1
7.8221,1.6351,1.5916,1
7.8221,1.6367,1.5682,1
7.8221,1.6375,1.5577,1
7.8221,1.6351,1.5738,1
7.8221,1.6327,1.5738,1
7.8221,1.6351,1.5867,1
7.8221,1.6327,1.5948,1
7.8221,1.6262,1.5875,1
7.8221,1.6262,1.6278,1
7.8221,1.6278,1.6423,1
7.8221,1.6286,1.6560,1
7.8221,1.6270,1.6697,1
7.8221,1.6295,1.6859,1
7.8221,1.6327,1.6826,1
7.8221,1.6295,1.6802,1
7.8221,1.6311,1.6568,1
7.8221,1.6343,1.6488,1
7.8221,1.6343,1.6214,1
7.8221,1.6319,1.6343,1
7.8221,1.6278,1.6351,1
7.8221,1.6254,1.6343,1
7.8221,1.6230,1.6407,1
7.8221,1.6246,1.6327,1
7.8221,1.6246,1.6214,1
7.8221,1.6238,1.6198,1
7.8221,1.6198,1.6375,1
7.8221,1.6286,1.6383,1
7.8221,1.6286,1.6697,1
7.8221,1.6254,1.6536,1
7.8221,1.6311,1.6544,1
7.8221,1.6327,1.6577,1
7.8221,1.6343,1.6593,1
7.8221,1.6286,1.6617,1
7.8221,1.6319,1.6681,1
7.8221,1.6343,1.6697,1
7.8221,1.6327,1.6689,1
7.8221,1.6262,1.6705,1
7.8221,1.6278,1.6560,1
7.8221,1.6311,1.6520,1
7.8221,1.6327,1.6649,1
7.8221,1.6351,1.6488,1
7.8221,1.6367,1.6544,1
7.8221,1.6383,1.6585,1
7.8221,1.6109,1.6560,1
7.8221,1.6158,1.6568,1
7.8221,1.6141,1.6585,1
7.8221,1.6133,1.6528,1
7.8221,1.6198,1.6875,1
7.8221,1.6198,1.6867,1
7.8221,1.6182,1.6697,1
7.8221,1.6174,1.6826,1
7.8221,1.6182,1.6673,1
7.8221,1.6198,1.6665,1
7.8221,1.6496,1.6552,1
7.8221,1.6464,1.6456,1
7.8221,1.6568,1.6432,1
7.8221,1.6552,1.6488,1
7.8221,1.6480,1.6206,1
7.8221,1.6456,1.6133,1
7.8221,1.6415,1.6141,1
7.8221,1.6367,1.6045,1
7.8221,1.6375,1.6206,1
7.8221,1.6359,1.6190,1
7.8221,1.6262,1.6351,1
7.8221,1.6238,1.6496,1
7.8221,1.6198,1.6480,1
7.8221,1.6206,1.6440,1
7.8221,1.6222,1.6343,1
7.8221,1.6262,1.6488,1
7.8221,1.6303,1.6577,1
7.8221,1.6335,1.6673,1
7.8221,1.6278,1.6520,1
7.8221,1.6440,1.6536,1
7.8221,1.6472,1.6488,1
7.8221,1.6456,1.6367,1
7.8221,1.6440,1.6311,1
7.8221,1.6456,1.6198,1
7.8221,1.6432,1.6262,1
7.8221,1.6407,1.6343,1
7.8221,1.6432,1.6335,1
7.8700,1.6456,1.6359,1
7.8700,1.6448,1.6577,1
7.8700,1.6319,1.6657,1
7.8700,1.6158,1.6440,1
7.8700,1.6166,1.6456,1
7.8700,1.6190,1.6504,1
7.8700,1.6230,1.6560,1
7.8700,1.6286,1.6601,1
7.8700,1.6254,1.6512,1
7.8700,1.6254,1.6472,1
7.8700,1.6262,1.6423,1
7.8700,1.6262,1.6198,1
7.8700,1.6246,1.6004,1
7.8700,1.6448,1.6238,1
7.8700,1.6440,1.6278,1
7.8700,1.6359,1.6278,1
7.8700,1.6343,1.6230,1
7.8700,1.6343,1.6222,1
7.8700,1.6367,1.6206,1
7.8700,1.6319,1.6149,1
7.8700,1.6335,1.6021,1
7.8700,1.6383,1.5892,1
7.8700,1.6343,1.6029,1
7.8700,1.6295,1.6037,1
7.8700,1.6319,1.6045,1
7.8700,1.6359,1.6053,1
7.8700,1.6303,1.6182,1
7.8700,1.6295,1.6222,1
7.8700,1.6303,1.6270,1
7.8700,1.6286,1.6359,1
7.8700,1.6246,1.6512,1
7.8700,1.6230,1.6770,1
7.8700,1.6262,1.6762,1
7.8700,1.6278,1.6665,1
7.8700,1.6359,1.6697,1
7.8700,1.6367,1.6714,1
7.8700,1.6367,1.6697,1
7.8700,1.6335,1.6496,1
7.8700,1.6399,1.6399,1
7.8700,1.6432,1.6383,1
7.8700,1.6432,1.6343,1
7.8700,1.6488,1.6415,1
7.8700,1.6512,1.6303,1
7.8700,1.6504,1.6311,1
7.8700,1.6432,1.6214,1
7.8700,1.6456,1.6174,1
7.8700,1.6480,1.6198,1
7.8700,1.6464,1.6415,1
7.8700,1.6456,1.6456,1
7.8700,1.6407,1.6383,1
7.8700,1.6423,1.6633,1
7.8700,1.6375,1.6528,1
7.8700,1.6383,1.6593,1
7.8700,1.6383,1.6657,1
7.8700,1.6351,1.6705,1
7.8700,1.6359,1.6810,1
7.8700,1.6359,1.6802,1
7.8700,1.6399,1.6738,1
7.8700,1.6335,1.6730,1
7.8700,1.6415,1.6778,1
7.8700,1.6391,1.6738,1
7.8700,1.6327,1.6778,1
7.8700,1.6351,1.6665,1
7.8700,1.6351,1.6657,1
7.8700,1.6391,1.6714,1
7.8700,1.6319,1.6649,1
7.8700,1.6423,1.6665,1
7.8700,1.6415,1.6681,1
7.8700,1.6383,1.6738,1
7.8700,1.6367,1.6714,1
7.8700,1.6407,1.6496,1
7.8700,1.6448,1.6311,1
7.8700,1.6383,1.6456,1
7.8700,1.6383,1.6464,1
7.8700,1.6391,1.6367,1
7.8700,1.6407,1.6464,1
7.8700,1.6327,1.6496,1
7.8700,1.6375,1.6577,1
7.8700,1.6399,1.6609,1
7.8700,1.6383,1.6625,1
7.8700,1.6375,1.6738,1
7.8700,1.6375,1.6762,1
7.8700,1.6407,1.6738,1
7.8700,1.6448,1.6794,1
7.8700,1.6472,1.6810,1
7.8700,1.6512,1.6730,1
7.8700,1.6496,1.6714,1
7.8700,1.6472,1.6448,1
7.8700,1.6496,1.6367,1
7.8700,1.6496,1.6440,1
7.8700,1.6472,1.6351,1
7.8700,1.6488,1.6480,1
7.8700,1.6456,1.6472,1
7.8700,1.6375,1.6407,1
7.8700,1.6391,1.6528,1
7.8700,1.6383,1.6730,1
7.9180,1.6399,1.6714,1
7.9180,1.6407,1.6802,1
7.9180,1.6448,1.6794,1
7.9180,1.6415,1.6601,1
7.9180,1.6415,1.6512,1
7.9180,1.6423,1.6464,1
7.9180,1.6399,1.6367,1
7.9180,1.6407,1.6488,1
7.9180,1.6351,1.6456,1
7.9180,1.6407,1.6246,1
7.9180,1.6375,1.6270,1
7.9180,1.6343,1.6335,1
7.9180,1.6335,1.6335,1
7.9180,1.6367,1.6536,1
7.9180,1.6367,1.6649,1
7.9180,1.6577,1.6657,1
7.9180,1.6577,1.6673,1
7.9180,1.6536,1.6560,1
7.9180,1.6528,1.6448,1
7.9180,1.6504,1.6464,1
7.9180,1.6496,1.6456,1
7.9180,1.6472,1.6480,1
7.9180,1.6415,1.6601,1
7.9180,1.6432,1.6512,1
7.9180,1.6432,1.6746,1
7.9180,1.6158,1.6697,1
7.9180,1.6206,1.6754,1
7.9180,1.6319,1.6810,1
7.9180,1.6295,1.6818,1
7.9180,1.6432,1.6601,1
7.9180,1.6464,1.6577,1
7.9180,1.6488,1.6520,1
7.9180,1.6601,1.6407,1
7.9180,1.6657,1.6520,1
7.9180,1.6705,1.6262,1
7.9180,1.6730,1.6351,1
7.9180,1.6681,1.6351,1
7.9180,1.6657,1.6391,1
7.9180,1.6681,1.6472,1
7.9180,1.6528,1.6617,1
7.9180,1.6544,1.6552,1
7.9180,1.6568,1.6681,1
7.9180,1.6448,1.6778,1
7.9180,1.6367,1.6810,1
7.9180,1.6375,1.6907,1
7.9180,1.6383,1.6818,1
7.9180,1.6423,1.6867,1
7.9180,1.6423,1.6714,1
7.9180,1.6496,1.6649,1
7.9180,1.6456,1.6746,1
7.9180,1.6440,1.6778,1
7.9180,1.6448,1.6722,1
7.9180,1.6520,1.6657,1
7.9180,1.6520,1.6544,1
7.9180,1.6528,1.6391,1
7.9180,1.6560,1.6415,1
7.9180,1.6536,1.6286,1
7.9180,1.6520,1.6440,1
7.9180,1.6448,1.6488,1
7.9180,1.6504,1.6383,1
7.9180,1.6456,1.6464,1
7.9180,1.6423,1.6399,1
7.9180,1.6415,1.6359,1
7.9180,1.6383,1.6278,1
7.9180,1.6303,1.6262,1
7.9180,1.6343,1.6327,1
7.9180,1.6375,1.6488,1
7.9180,1.6367,1.6496,1
7.9180,1.6383,1.6456,1
7.9180,1.6367,1.6464,1
7.9180,1.6383,1.6343,1
7.9180,1.6359,1.6319,1
7.9180,1.6343,1.6375,1
7.9180,1.6399,1.6472,1
7.9180,1.6375,1.6568,1
7.9180,1.6319,1.6552,1
7.9180,1.6327,1.6528,1
7.9180,1.6343,1.6440,1
7.9180,1.6359,1.6488,1
7.9180,1.6351,1.6456,1
7.9180,1.6391,1.6423,1
7.9180,1.6399,1.6246,1
7.9180,1.6359,1.6206,1
7.9180,1.6343,1.6053,1
7.9180,1.6375,1.6077,1
7.9180,1.6367,1.6262,1
7.9180,1.6351,1.6158,1
7.9180,1.6343,1.6166,1
7.9180,1.6319,1.6222,1
7.9180,1.6311,1.6214,1
7.9180,1.6351,1.6375,1
7.9180,1.6375,1.6665,1
7.9180,1.6407,1.6697,1
7.9180,1.6391,1.6867,1
7.9180,1.6448,1.6810,1
7.9180,1.6432,1.6593,1
7.9660,1.6391,1.6714,1
7.9660,1.6399,1.6722,1
7.9660,1.6415,1.6665,1
7.9660,1.6375,1.6714,1
7.9660,1.6303,1.6544,1
7.9660,1.6351,1.6480,1
7.9660,1.6351,1.6480,1
7.9660,1.6311,1.6512,1
7.9660,1.6303,1.6512,1
7.9660,1.6335,1.6198,1
7.9660,1.6311,1.6174,1
7.9660,1.6303,1.6166,1
7.9660,1.6311,1.6182,1
7.9660,1.6303,1.6141,1
7.9660,1.6286,1.6351,1
7.9660,1.6262,1.6415,1
7.9660,1.6246,1.6375,1
7.9660,1.6270,1.6311,1
7.9660,1.6238,1.6367,1
7.9660,1.6262,1.6722,1
7.9660,1.6295,1.6665,1
7.9660,1.6246,1.6697,1
7.9660,1.6222,1.6633,1
7.9660,1.6278,1.6810,1
7.9660,1.6303,1.6786,1
7.9660,1.6278,1.6673,1
7.9660,1.6311,1.6705,1
7.9660,1.6254,1.6609,1
7.9660,1.6262,1.6593,1
7.9660,1.6230,1.6520,1
7.9660,1.6270,1.6440,1
7.9660,1.6286,1.6423,1
7.9660,1.6246,1.6480,1
7.9660,1.6262,1.6319,1
7.9660,1.6254,1.6214,1
7.9660,1.6214,1.6222,1
7.9660,1.6214,1.6246,1
7.9660,1.6319,1.6383,1
7.9660,1.6254,1.6319,1
7.9660,1.6230,1.6359,1
7.9660,1.6230,1.6480,1
7.9660,1.6246,1.6560,1
7.9660,1.6286,1.6512,1
7.9660,1.6246,1.6520,1
7.9660,1.6327,1.6593,1
7.9660,1.6335,1.6593,1
7.9660,1.6286,1.6625,1
7.9660,1.6278,1.6577,1
7.9660,1.6311,1.6730,1
7.9660,1.6278,1.6746,1
7.9660,1.6270,1.6762,1
7.9660,1.6295,1.6689,1
7.9660,1.6286,1.6673,1
7.9660,1.6262,1.6722,1
7.9660,1.6206,1.6641,1
7.9660,1.6238,1.6722,1
7.9660,1.6214,1.6577,1
7.9660,1.6174,1.6585,1
7.9660,1.6230,1.6391,1
7.9660,1.6254,1.6375,1
7.9660,1.6214,1.6303,1
7.9660,1.6230,1.6254,1
7.9660,1.6254,1.6254,1
7.9660,1.6262,1.6286,1
7.9660,1.6254,1.6367,1
7.9660,1.6278,1.6270,1
7.9660,1.6335,1.6343,1
7.9660,1.6327,1.6295,1
7.9660,1.6286,1.6577,1
7.9660,1.6335,1.6552,1
7.9660,1.6343,1.6560,1
7.9660,1.6311,1.6560,1
7.9660,1.6319,1.6633,1
7.9660,1.6327,1.6625,1
7.9660,1.6303,1.6536,1
7.9660,1.6270,1.6609,1
7.9660,1.6278,1.6585,1
7.9660,1.6303,1.6673,1
7.9660,1.6295,1.6375,1
7.9660,1.6303,1.6375,1
7.9660,1.6327,1.6383,1
7.9660,1.6270,1.6432,1
7.9660,1.6222,1.6327,1
7.9660,1.6254,1.6343,1
7.9660,1.6254,1.6278,1
7.9660,1.6246,1.6254,1
7.9660,1.6262,1.6375,1
7.9660,1.6262,1.6335,1
7.9660,1.6246,1.6609,1
7.9660,1.6246,1.6625,1
7.9660,1.6262,1.6730,1
7.9660,1.6311,1.6480,1
7.9660,1.6286,1.6528,1
7.9660,1.6278,1.6391,1
7.9660,1.6295,1.6577,1
7.9660,1.6311,1.6681,1
8.0135,1.6278,1.6625,1
8.0135,1.6278,1.6673,1
8.0135,1.6286,1.6399,1
8.0135,1.6254,1.6367,1
8.0135,1.6262,1.6270,1
8.0135,1.6262,1.6577,1
8.0135,1.6262,1.6585,1
8.0135,1.6238,1.6714,1
8.0135,1.6254,1.6697,1
8.0135,1.6238,1.6641,1
8.0135,1.6222,1.6601,1
8.0135,1.6278,1.6504,1
8.0135,1.6295,1.6577,1
8.0135,1.6278,1.6440,1
8.0135,1.6262,1.6432,1
8.0135,1.6270,1.6407,1
8.0135,1.6286,1.6415,1
8.0135,1.6295,1.6552,1
8.0135,1.6270,1.6609,1
8.0135,1.6262,1.6464,1
8.0135,1.6254,1.6448,1
8.0135,1.6214,1.6480,1
8.0135,1.6246,1.6375,1
8.0135,1.6246,1.6544,1
8.0135,1.6206,1.6560,1
8.0135,1.6214,1.6544,1
8.0135,1.6254,1.6577,1
8.0135,1.6254,1.6399,1
8.0135,1.6246,1.6238,1
8.0135,1.6278,1.6407,1
8.0135,1.6270,1.6456,1
8.0135,1.6246,1.6544,1
8.0135,1.6198,1.6448,1
8.0135,1.6375,1.6415,1
8.0135,1.6399,1.6432,1
8.0135,1.6125,1.6415,1
8.0135,1.6141,1.6464,1
8.0135,1.6166,1.6448,1
8.0135,1.6149,1.6552,1
8.0135,1.6190,1.6593,1
8.0135,1.6262,1.6544,1
8.0135,1.6270,1.6440,1
8.0135,1.6270,1.6665,1
8.0135,1.6133,1.6697,1
8.0135,1.6125,1.6794,1
8.0135,1.6351,1.6778,1
8.0135,1.6278,1.6673,1
8.0135,1.6262,1.6625,1
8.0135,1.6278,1.6577,1
8.0135,1.6214,1.6432,1
8.0135,1.6206,1.6496,1
8.0135,1.6093,1.6585,1
8.0135,1.6093,1.6528,1
8.0135,1.6085,1.6617,1
8.0135,1.6125,1.6351,1
8.0135,1.6085,1.6311,1
8.0135,1.6093,1.6319,1
8.0135,1.6117,1.6456,1
8.0135,1.6125,1.6536,1
8.0135,1.6125,1.6641,1
8.0135,1.6101,1.6601,1
8.0135,1.6246,1.6528,1
8.0135,1.6214,1.6601,1
8.0135,1.6182,1.6472,1
8.0135,1.6149,1.6665,1
8.0135,1.6246,1.6649,1
8.0135,1.6254,1.6649,1
8.0135,1.6222,1.6738,1
8.0135,1.6190,1.6536,1
8.0135,1.6190,1.6560,1
8.0135,1.6101,1.6440,1
8.0135,1.6077,1.6520,1
8.0135,1.6133,1.6270,1
8.0135,1.6101,1.6335,1
8.0135,1.6077,1.6456,1
8.0135,1.6093,1.6238,1
8.0135,1.6093,1.6319,1
8.0135,1.6069,1.6149,1
8.0135,1.6141,1.6270,1
8.0135,1.6182,1.6182,1
8.0135,1.6262,1.6343,1
8.0135,1.6246,1.6286,1
8.0135,1.6238,1.6480,1
8.0135,1.6311,1.6496,1
8.0135,1.6295,1.6456,1
8.0135,1.6230,1.6673,1
8.0135,1.6238,1.6689,1
8.0135,1.6190,1.6714,1
8.0135,1.6133,1.6939,1
8.0135,1.6149,1.6939,1
8.0135,1.6149,1.6899,1
8.0135,1.6141,1.6689,1
8.0135,1.6125,1.6456,1
8.0135,1.6117,1.6464,1
8.0135,1.6133,1.6319,1
8.0500,1.6149,1.6472,1
8.0500,1.6182,1.6399,1
8.0500,1.6278,1.6440,1
8.0500,1.6238,1.6319,1
8.0500,1.6222,1.6262,1
8.0500,1.6222,1.6311,1
8.0500,1.6254,1.6488,1
8.0500,1.6262,1.6826,1
8.0500,1.6222,1.6746,1
8.0500,1.6262,1.6705,1
8.0500,1.6214,1.6456,1
8.0500,1.6174,1.6544,1
8.0500,1.6230,1.6456,1
8.0500,1.6254,1.6359,1
8.0500,1.6222,1.6448,1
8.0500,1.6214,1.6423,1
8.0500,1.6206,1.6464,1
8.0500,1.6198,1.6391,1
8.0500,1.6174,1.6440,1
8.0500,1.6190,1.6568,1
8.0500,1.6222,1.6665,1
8.0500,1.6246,1.6617,1
8.0500,1.6021,1.6633,1
8.0500,1.6077,1.6609,1
8.0500,1.6053,1.6593,1
8.0500,1.6069,1.6593,1
8.0500,1.6125,1.6544,1
8.0500,1.6133,1.6512,1
8.0500,1.6149,1.6496,1
8.0500,1.6069,1.6359,1
8.0500,1.6109,1.6432,1
8.0500,1.6133,1.6415,1
8.0500,1.6262,1.6327,1
8.0500,1.6246,1.6286,1
8.0500,1.6270,1.6149,1
8.0500,1.6214,1.6012,1
8.0500,1.6166,1.6004,1
8.0500,1.6198,1.6141,1
8.0500,1.6166,1.6158,1
8.0500,1.6206,1.6246,1
8.0500,1.6166,1.6311,1
8.0500,1.6141,1.6077,1
8.0500,1.6166,1.6295,1
8.0500,1.6158,1.6399,1
8.0500,1.6166,1.6633,1
8.0500,1.6198,1.6697,1
8.0500,1.6141,1.6714,1
8.0500,1.6117,1.6560,1
8.0500,1.6182,1.6528,1
8.0500,1.6158,1.6488,1
8.0500,1.6158,1.6568,1
8.0500,1.6174,1.6705,1
8.0500,1.6158,1.6504,1
8.0500,1.6149,1.6536,1
8.0500,1.6166,1.6270,1
8.0500,1.6141,1.6319,1
8.0500,1.6206,1.6359,1
8.0500,1.6182,1.6311,1
8.0500,1.6206,1.6423,1
8.0500,1.6214,1.6593,1
8.0500,1.6214,1.6327,1
8.0500,1.6206,1.6367,1
8.0500,1.6198,1.6480,1
8.0500,1.6174,1.6407,1
8.0500,1.6182,1.6560,1
8.0500,1.6206,1.6560,1
8.0500,1.6198,1.6585,1
8.0500,1.6190,1.6601,1
8.0500,1.6246,1.6520,1
8.0500,1.6246,1.6415,1
8.0500,1.6222,1.6520,1
8.0500,1.6198,1.6552,1
8.0500,1.6254,1.6496,1
8.0500,1.6270,1.6456,1
8.0500,1.6198,1.6383,1
8.0500,1.6182,1.6391,1
8.0500,1.6190,1.6432,1
8.0500,1.6198,1.6270,1
8.0500,1.6101,1.6149,1
8.1085,1.6125,1.6053,1
8.1085,1.6125,1.6061,1
8.1085,1.6133,1.6125,1
8.1085,1.6085,1.6262,1
8.1085,1.6109,1.6295,1
8.1085,1.6117,1.6448,1
8.1085,1.5964,1.6415,1
8.1085,1.6004,1.6407,1
8.1085,1.6021,1.6601,1
8.1085,1.6133,1.6697,1
8.1085,1.6125,1.6778,1
8.1085,1.6351,1.6738,1
8.1085,1.6319,1.6617,1
8.1085,1.6303,1.6480,1
8.1085,1.6295,1.6536,1
8.1085,1.6319,1.6593,1
8.1085,1.6399,1.6601,1
8.1085,1.6335,1.6601,1
8.1085,1.6327,1.6512,1
8.1085,1.6214,1.6415,1
8.1085,1.6174,1.6432,1
8.1085,1.6004,1.6544,1
8.1085,1.6101,1.6593,1
8.1085,1.6085,1.6601,1
8.1085,1.6101,1.6480,1
8.1085,1.6141,1.6270,1
8.1085,1.6206,1.6343,1
8.1085,1.6198,1.6295,1
8.1085,1.6238,1.6432,1
8.1085,1.6254,1.6625,1
8.1085,1.6230,1.6689,1
8.1085,1.6182,1.6560,1
8.1085,1.6174,1.6601,1
8.1085,1.6214,1.6609,1
8.1085,1.6182,1.6883,1
8.1085,1.6174,1.7108,1
8.1085,1.6190,1.7165,1
8.1085,1.6182,1.7157,1
8.1085,1.6166,1.6955,1
8.1085,1.6174,1.6826,1
8.1085,1.6206,1.6778,1
8.1085,1.6190,1.6818,1
8.1085,1.6198,1.6859,1
8.1085,1.6166,1.6947,1
8.1085,1.6149,1.6673,1
8.1085,1.6133,1.6520,1
8.1085,1.6141,1.6415,1
8.1085,1.6174,1.6407,1
8.1085,1.6158,1.6593,1
8.1085,1.6149,1.6609,1
8.1085,1.6141,1.6593,1
8.1085,1.6141,1.6625,1
8.1085,1.6101,1.6504,1
8.1085,1.6117,1.6552,1
8.1085,1.6133,1.6568,1
8.1085,1.6125,1.6681,1
8.1085,1.6101,1.6649,1
8.1085,1.6117,1.6697,1
8.1085,1.6109,1.6714,1
8.1085,1.6077,1.6665,1
8.1085,1.6117,1.6673,1
8.1085,1.6133,1.6601,1
8.1085,1.6125,1.6681,1
8.1085,1.6158,1.6601,1
8.1085,1.6149,1.6689,1
8.1085,1.6158,1.6625,1
8.1085,1.6141,1.6625,1
8.1085,1.6158,1.6448,1
8.1085,1.6149,1.6432,1
8.1085,1.6133,1.6448,1
8.1085,1.6158,1.6472,1
8.1085,1.6174,1.6512,1
8.1085,1.6166,1.6472,1
8.1085,1.6133,1.6786,1
8.1085,1.6166,1.6802,1
8.1085,1.6174,1.6810,1
8.1085,1.6174,1.6754,1
8.1085,1.6149,1.6867,1
8.1085,1.6190,1.6842,1
8.1085,1.6230,1.6842,1
8.1085,1.6198,1.6770,1
8.1085,1.6206,1.6907,1
8.1085,1.6198,1.6939,1
8.1085,1.6238,1.6552,1
8.1085,1.6254,1.6423,1
8.1085,1.6278,1.6432,1
8.1085,1.6238,1.6512,1
8.1085,1.6214,1.6544,1
8.1085,1.6238,1.6617,1
8.1085,1.6222,1.6625,1
8.1085,1.6230,1.6738,1
8.1085,1.6166,1.6544,1
8.1085,1.6198,1.6681,1
8.1085,1.6133,1.6714,1
8.1085,1.6093,1.6786,1
8.1085,1.6125,1.6738,1
8.1085,1.6166,1.6762,1
8.1085,1.6166,1.6689,1
8.1085,1.6149,1.6665,1
8.1085,1.6149,1.6826,1
8.1085,1.6117,1.6593,1
8.1085,1.6125,1.6738,1
8.1085,1.6174,1.6536,1
8.1085,1.6174,1.6520,1
8.1085,1.6141,1.6407,1
8.1085,1.6093,1.6375,1
8.1085,1.6125,1.6399,1
8.1085,1.6125,1.6423,1
8.1085,1.6093,1.6391,1
8.1085,1.6149,1.6222,1
8.1085,1.6198,1.6383,1
8.1560,1.6198,1.6399,1
8.1560,1.6206,1.6536,1
8.1560,1.6270,1.6383,1
8.1560,1.6286,1.6440,1
8.1560,1.6254,1.6464,1
8.1560,1.6270,1.6238,1
8.1560,1.6270,1.6359,1
8.1560,1.6246,1.6472,1
8.1560,1.6190,1.6480,1
8.1560,1.6206,1.6472,1
8.1560,1.6190,1.6303,1
8.1560,1.6093,1.6222,1
8.1560,1.6085,1.6520,1
8.1560,1.6093,1.6512,1
8.1560,1.6166,1.6577,1
8.1560,1.6125,1.6714,1
8.1560,1.6174,1.6681,1
8.1560,1.6198,1.6593,1
8.1560,1.6158,1.6544,1
8.1560,1.6149,1.6593,1
8.1560,1.6174,1.6738,1
8.1560,1.6206,1.6689,1
8.1560,1.6182,1.6528,1
8.1560,1.6222,1.6609,1
8.1560,1.6166,1.6528,1
8.1560,1.6149,1.6601,1
8.1560,1.6166,1.6448,1
8.1560,1.6206,1.6480,1
8.1560,1.6246,1.6415,1
8.1560,1.6286,1.6327,1
8.1560,1.6343,1.6254,1
8.1560,1.6303,1.6351,1
8.1560,1.6278,1.6448,1
8.1560,1.6238,1.6552,1
8.1560,1.6238,1.6649,1
8.1560,1.6351,1.6673,1
8.1560,1.6286,1.6754,1
8.1560,1.6262,1.6697,1
8.1560,1.6246,1.6891,1
8.1560,1.6182,1.6923,1
8.1560,1.6158,1.7044,1
8.1560,1.6238,1.6988,1
8.1560,1.6222,1.6947,1
8.1560,1.6254,1.6842,1
8.1560,1.6286,1.6722,1
8.1560,1.6182,1.6601,1
8.1560,1.6149,1.6552,1
8.1560,1.6149,1.6544,1
8.1560,1.6182,1.6609,1
8.1560,1.6158,1.6512,1
8.1560,1.6246,1.6311,1
8.1560,1.6222,1.6383,1
8.1560,1.6278,1.6359,1
8.1560,1.6230,1.6319,1
8.1560,1.6174,1.6359,1
8.1560,1.6214,1.6407,1
8.1560,1.6222,1.6568,1
8.1560,1.6222,1.6536,1
8.1560,1.6238,1.6480,1
8.1560,1.6295,1.6560,1
8.1560,1.6166,1.6617,1
8.1560,1.6158,1.6560,1
8.1560,1.6166,1.6520,1
8.1560,1.6158,1.6391,1
8.1560,1.6182,1.6520,1
8.1560,1.6182,1.6488,1
8.1560,1.6278,1.6351,1
8.1560,1.6270,1.6399,1
8.1560,1.6230,1.6391,1
8.1560,1.6286,1.6327,1
8.1560,1.6295,1.6391,1
8.1560,1.6246,1.6270,1
8.1560,1.6238,1.6254,1
8.1560,1.6254,1.6327,1
8.1560,1.6230,1.6270,1
8.1560,1.6182,1.6319,1
8.1560,1.6158,1.6351,1
8.1560,1.6166,1.6456,1
8.1560,1.6133,1.6456,1
8.1560,1.6117,1.6488,1
8.1560,1.6117,1.6286,1
8.1560,1.6004,1.6319,1
8.1560,1.6004,1.6423,1
8.1560,1.6077,1.6544,1
8.1560,1.6093,1.6464,1
8.1560,1.6101,1.6464,1
8.1560,1.6149,1.6617,1
8.1560,1.6141,1.6335,1
8.1560,1.6149,1.6448,1
8.1560,1.6077,1.6440,1
8.1560,1.6109,1.6689,1
8.1560,1.6246,1.6722,1
8.1560,1.6206,1.6705,1
8.1560,1.6182,1.6665,1
8.1560,1.6246,1.6673,1
8.1885,1.6246,1.6697,1
8.1885,1.6174,1.6544,1
8.1885,1.6174,1.6722,1
8.1885,1.6158,1.6577,1
8.1885,1.6149,1.6633,1
8.1885,1.6141,1.6577,1
8.1885,1.6166,1.6641,1
8.1885,1.6158,1.6577,1
8.1885,1.6109,1.6585,1
8.1885,1.6053,1.6512,1
8.1885,1.6053,1.6528,1
8.1885,1.6029,1.6593,1
8.1885,1.6037,1.6456,1
8.1885,1.6069,1.6448,1
8.1885,1.6085,1.6375,1
8.1885,1.6069,1.6375,1
8.1885,1.6053,1.6278,1
8.1885,1.6077,1.6343,1
8.1885,1.6149,1.6415,1
8.1885,1.6133,1.6528,1
8.1885,1.6141,1.6472,1
8.1885,1.6158,1.6423,1
8.1885,1.6133,1.6577,1
8.1885,1.6149,1.6568,1
8.1885,1.6182,1.6544,1
8.1885,1.6174,1.6585,1
8.1885,1.6012,1.6568,1
8.1885,1.6053,1.6504,1
8.1885,1.5980,1.6319,1
8.1885,1.5948,1.6295,1
8.1885,1.6012,1.6270,1
8.1885,1.6029,1.6125,1
8.1885,1.6069,1.6029,1
8.1885,1.6085,1.6012,1
8.1885,1.6077,1.6061,1
8.1885,1.6069,1.5980,1
8.1885,1.6270,1.6069,1
8.1885,1.6270,1.6141,1
8.1885,1.6238,1.6238,1
8.1885,1.6278,1.6101,1
8.1885,1.6238,1.6117,1
8.1885,1.6222,1.6246,1
8.1885,1.6149,1.6351,1
8.1885,1.6141,1.6399,1
8.1885,1.6141,1.6440,1
8.1885,1.6149,1.6472,1
8.1885,1.6101,1.6440,1
8.1885,1.6117,1.6359,1
8.1885,1.6149,1.6286,1
8.1885,1.6109,1.6399,1
8.1885,1.6117,1.6399,1
8.1885,1.6133,1.6432,1
8.1885,1.6174,1.6327,1
8.1885,1.6158,1.6391,1
8.1885,1.6222,1.6423,1
8.1885,1.6270,1.6391,1
8.1885,1.6270,1.6375,1
8.1885,1.6222,1.6399,1
8.1885,1.6262,1.6504,1
8.1885,1.6303,1.6528,1
8.1885,1.6270,1.6593,1
8.1885,1.6456,1.6609,1
8.1885,1.6472,1.6649,1
8.1885,1.6448,1.6568,1
8.1885,1.6375,1.6488,1
8.1885,1.6375,1.6577,1
8.2350,1.6367,1.6649,1
8.2350,1.6367,1.6657,1
8.2350,1.6335,1.6520,1
8.2350,1.6375,1.6399,1
8.2350,1.6359,1.6303,1
8.2350,1.6166,1.6295,1
8.2350,1.6254,1.6464,1
8.2350,1.6278,1.6343,1
8.2350,1.6286,1.6415,1
8.2350,1.6270,1.6270,1
8.2350,1.6391,1.6230,1
8.2350,1.6367,1.6286,1
8.2350,1.6351,1.6303,1
8.2350,1.6383,1.6520,1
8.2350,1.6391,1.6633,1
8.2350,1.6375,1.6665,1
8.2350,1.6327,1.6504,1
8.2350,1.6311,1.6568,1
8.2350,1.6319,1.6593,1
8.2350,1.6286,1.6593,1
8.2350,1.6230,1.6512,1
8.2350,1.6254,1.6472,1
8.2350,1.6270,1.6512,1
8.2350,1.6206,1.6464,1
8.2350,1.6230,1.6432,1
8.2350,1.6230,1.6472,1
8.2350,1.6198,1.6568,1
8.2350,1.6230,1.6689,1
8.2350,1.6230,1.6552,1
8.2350,1.6230,1.6681,1
8.2350,1.6214,1.6730,1
8.2350,1.6254,1.6568,1
8.2350,1.6222,1.6633,1
8.2350,1.6214,1.6577,1
8.2350,1.6158,1.6568,1
8.2350,1.6158,1.6520,1
8.2350,1.6158,1.6585,1
8.2350,1.6166,1.6480,1
8.2350,1.6166,1.6520,1
8.2350,1.6158,1.6504,1
8.2350,1.6117,1.6456,1
8.2350,1.6149,1.6754,1
8.2350,1.6190,1.6834,1
8.2350,1.6182,1.6810,1
8.2350,1.6222,1.6859,1
8.2350,1.6270,1.6689,1
8.2350,1.6230,1.6577,1
8.2350,1.6166,1.6577,1
8.2350,1.6182,1.6617,1
8.2350,1.6190,1.6528,1
8.2350,1.6206,1.6673,1
8.2350,1.6149,1.6601,1
8.2350,1.6093,1.6528,1
8.2350,1.6093,1.6552,1
8.2350,1.6093,1.6536,1
8.2350,1.6069,1.6609,1
8.2350,1.6133,1.6657,1
8.2350,1.6141,1.6786,1
8.2350,1.6125,1.6738,1
8.2350,1.6174,1.6859,1
8.2350,1.6182,1.6617,1
8.2350,1.6133,1.6496,1
8.2350,1.6190,1.6190,1
8.2350,1.6238,1.6149,1
8.2350,1.6230,1.6198,1
8.2350,1.6230,1.6327,1
8.2350,1.6230,1.6303,1
8.2350,1.6254,1.6053,1
8.2350,1.6190,1.5972,1
8.2350,1.6166,1.5948,1
8.2350,1.6174,1.6085,1
8.2350,1.6182,1.6158,1
8.2350,1.6182,1.6367,1
8.2350,1.6158,1.6262,1
8.2350,1.6166,1.6295,1
8.2350,1.6133,1.6190,1
8.2350,1.6117,1.6238,1
8.2350,1.6149,1.6311,1
8.2350,1.6190,1.6383,1
8.2350,1.6174,1.6246,1
8.2350,1.6166,1.6270,1
8.2350,1.6198,1.6166,1
8.2350,1.6190,1.6214,1
8.2350,1.6182,1.6246,1
8.2350,1.6198,1.6085,1
8.2350,1.6230,1.6141,1
8.2350,1.6198,1.5996,1
8.2350,1.6190,1.5932,1
8.2350,1.6206,1.6077,1
8.2350,1.6214,1.6133,1
8.2350,1.6222,1.6190,1
8.2350,1.6230,1.6230,1
8.2821,1.6222,1.6278,1
8.2821,1.6206,1.6432,1
8.2821,1.6222,1.6520,1
8.2821,1.6222,1.6536,1
8.2821,1.6230,1.6528,1
8.2821,1.6222,1.6560,1
8.2821,1.6230,1.6472,1
8.2821,1.6206,1.6407,1
8.2821,1.6182,1.6440,1
8.2821,1.6190,1.6367,1
8.2821,1.6222,1.6391,1
8.2821,1.6246,1.6335,1
8.2821,1.6206,1.6206,1
8.2821,1.6238,1.6295,1
8.2821,1.6238,1.6432,1
8.2821,1.6238,1.6577,1
8.2821,1.6359,1.6552,1
8.2821,1.6415,1.6633,1
8.2821,1.6399,1.6625,1
8.2821,1.6343,1.6762,1
8.2821,1.6117,1.6738,1
8.2821,1.6109,1.6705,1
8.2821,1.6109,1.6762,1
8.2821,1.6085,1.6657,1
8.2821,1.6109,1.6585,1
8.2821,1.6101,1.6552,1
8.2821,1.5956,1.6585,1
8.2821,1.5980,1.6609,1
8.2821,1.5972,1.6544,1
8.2821,1.6004,1.6528,1
8.2821,1.6254,1.6432,1
8.2821,1.6246,1.6391,1
8.2821,1.6262,1.6423,1
8.2821,1.6230,1.6415,1
8.2821,1.6246,1.6577,1
8.2821,1.6254,1.6520,1
8.2821,1.6198,1.6448,1
8.2821,1.6158,1.6432,1
8.2821,1.6206,1.6367,1
8.2821,1.6182,1.6319,1
8.2821,1.6109,1.6488,1
8.2821,1.6141,1.6633,1
8.2821,1.6109,1.6625,1
8.2821,1.6117,1.6568,1
8.2821,1.6109,1.6391,1
8.2821,1.6109,1.6335,1
8.2821,1.6125,1.6375,1
8.2821,1.6093,1.6552,1
8.2821,1.6101,1.6464,1
8.2821,1.6117,1.6520,1
8.2821,1.6117,1.6440,1
8.2821,1.6101,1.6432,1
8.2821,1.6133,1.6440,1
8.2821,1.6117,1.6577,1
8.2821,1.6093,1.6705,1
8.2821,1.6093,1.6689,1
8.2821,1.6158,1.6818,1
8.2821,1.6198,1.6714,1
8.2821,1.6214,1.6875,1
8.2821,1.6254,1.6875,1
8.2821,1.6254,1.6778,1
8.2821,1.6206,1.6649,1
8.2821,1.6246,1.6585,1
8.2821,1.6278,1.6480,1
8.2821,1.6270,1.6415,1
8.2821,1.6238,1.6609,1
8.2821,1.6222,1.6488,1
8.2821,1.6206,1.6504,1
8.2821,1.6166,1.6480,1
8.2821,1.6158,1.6407,1
8.2821,1.6190,1.6544,1
8.2821,1.6222,1.6689,1
8.2821,1.6182,1.6875,1
8.2821,1.6182,1.6705,1
8.2821,1.6174,1.6697,1
8.2821,1.6214,1.6415,1
8.2821,1.6206,1.6399,1
8.2821,1.6190,1.6359,1
8.2821,1.6158,1.6480,1
8.2821,1.6149,1.6568,1
8.2821,1.6182,1.6577,1
8.2821,1.6149,1.6504,1
8.2821,1.6133,1.6311,1
8.2821,1.6174,1.6456,1
8.2821,1.6182,1.6472,1
8.2821,1.6133,1.6625,1
8.2821,1.6109,1.6609,1
8.2821,1.6174,1.6472,1
8.2821,1.6206,1.6327,1
8.2821,1.6214,1.6351,1
8.2821,1.6206,1.6214,1
8.2821,1.6246,1.6238,1
8.2821,1.6214,1.6085,1
8.2821,1.6149,1.6149,1
8.3300,1.6174,1.6238,1
8.3300,1.6182,1.6230,1
8.3300,1.6182,1.6303,1
8.3300,1.6206,1.6432,1
8.3300,1.6214,1.6456,1
8.3300,1.6166,1.6423,1
8.3300,1.6117,1.6512,1
8.3300,1.6149,1.6391,1
8.3300,1.6166,1.6577,1
8.3300,1.6182,1.6536,1
8.3300,1.6198,1.6391,1
8.3300,1.6222,1.6568,1
8.3300,1.6222,1.6488,1
8.3300,1.6158,1.6504,1
8.3300,1.6166,1.6488,1
8.3300,1.6158,1.6391,1
8.3300,1.6174,1.6391,1
8.3300,1.6166,1.6520,1
8.3300,1.6174,1.6633,1
8.3300,1.6149,1.6633,1
8.3300,1.6141,1.6665,1
8.3300,1.6166,1.6456,1
8.3300,1.6149,1.6472,1
8.3300,1.6125,1.6440,1
8.3300,1.6166,1.6536,1
8.3300,1.6182,1.6593,1
8.3300,1.6174,1.6536,1
8.3300,1.6158,1.6593,1
8.3300,1.6182,1.6488,1
8.3300,1.6174,1.6536,1
8.3300,1.6133,1.6528,1
8.3300,1.6141,1.6552,1
8.3300,1.6190,1.6697,1
8.3300,1.6182,1.6681,1
8.3300,1.6117,1.6633,1
8.3300,1.6133,1.6705,1
8.3300,1.6109,1.6746,1
8.3300,1.6117,1.6657,1
8.3300,1.6166,1.6705,1
8.3300,1.6198,1.6673,1
8.3300,1.6190,1.6794,1
8.3300,1.6133,1.6810,1
8.3300,1.6117,1.6593,1
8.3300,1.6125,1.6633,1
8.3300,1.6101,1.6520,1
8.3300,1.6109,1.6480,1
8.3300,1.6174,1.6399,1
8.3300,1.6166,1.6383,1
8.3300,1.6125,1.6415,1
8.3300,1.5835,1.6480,1
8.3300,1.5843,1.6399,1
8.3300,1.5875,1.6391,1
8.3300,1.5908,1.6504,1
8.3300,1.5964,1.6496,1
8.3300,1.5988,1.6697,1
8.3300,1.5988,1.6673,1
8.3300,1.5988,1.6681,1
8.3300,1.5988,1.6601,1
8.3300,1.5948,1.6456,1
8.3300,1.6278,1.6238,1
8.3300,1.6286,1.6158,1
8.3300,1.6254,1.6222,1
8.3300,1.6222,1.6198,1
8.3300,1.6222,1.6109,1
8.3300,1.6206,1.6109,1
8.3300,1.6141,1.6182,1
8.3300,1.6101,1.6295,1
8.3300,1.6053,1.6367,1
8.3300,1.6061,1.6432,1
8.3300,1.5980,1.6536,1
8.3300,1.6004,1.6649,1
8.3300,1.5996,1.6673,1
8.3300,1.5956,1.6722,1
8.3300,1.5940,1.6673,1
8.3300,1.5988,1.6440,1
8.3300,1.6012,1.6254,1
8.3300,1.6045,1.6117,1
8.3300,1.6101,1.6133,1
8.3300,1.6093,1.6141,1
8.3300,1.6109,1.6238,1
8.3300,1.6093,1.6335,1
8.3300,1.6125,1.6238,1
8.3300,1.6149,1.6222,1
8.3300,1.6117,1.6198,1
8.3300,1.6125,1.6206,1
8.3300,1.6158,1.6286,1
8.3300,1.6117,1.6464,1
8.3300,1.6149,1.6504,1
8.3300,1.6367,1.6528,1
8.3300,1.6359,1.6448,1
8.3300,1.6327,1.6415,1
8.3300,1.6311,1.6319,1
8.3300,1.6286,1.6303,1
8.3300,1.6262,1.6432,1
8.3300,1.6230,1.6625,1
8.3300,1.6246,1.6601,1
8.3771,1.6262,1.6464,1
8.3771,1.6230,1.6472,1
8.3771,1.6077,1.6432,1
8.3771,1.6069,1.6496,1
8.3771,1.6061,1.6351,1
8.3771,1.6053,1.6504,1
8.3771,1.6133,1.6456,1
8.3771,1.6141,1.6359,1
8.3771,1.6149,1.6351,1
8.3771,1.6182,1.6520,1
8.3771,1.6190,1.6609,1
8.3771,1.6174,1.6536,1
8.3771,1.6158,1.6568,1
8.3771,1.6262,1.6544,1
8.3771,1.6198,1.6496,1
8.3771,1.6214,1.6520,1
8.3771,1.6214,1.6625,1
8.3771,1.6214,1.6778,1
8.3771,1.6174,1.6609,1
8.3771,1.6149,1.6552,1
8.3771,1.6166,1.6343,1
8.3771,1.6149,1.6383,1
8.3771,1.6117,1.6295,1
8.3771,1.6093,1.6101,1
8.3771,1.6190,1.6222,1
8.3771,1.6190,1.6077,1
8.3771,1.6149,1.6045,1
8.3771,1.6206,1.5964,1
8.3771,1.6246,1.6109,1
8.3771,1.6125,1.6117,1
8.3771,1.6133,1.6311,1
8.3771,1.6158,1.6383,1
8.3771,1.6141,1.6432,1
8.3771,1.6101,1.6657,1
8.3771,1.6149,1.6609,1
8.3771,1.6158,1.6794,1
8.3771,1.6141,1.6722,1
8.3771,1.6101,1.6681,1
8.3771,1.6101,1.6617,1
8.3771,1.6174,1.6512,1
8.3771,1.6158,1.6665,1
8.3771,1.6166,1.6577,1
8.3771,1.6190,1.6512,1
8.3771,1.6190,1.6560,1
8.3771,1.6174,1.6552,1
8.3771,1.6230,1.6609,1
8.3771,1.6222,1.6754,1
8.3771,1.6238,1.6714,1
8.3771,1.6254,1.6730,1
8.3771,1.6254,1.6746,1
8.3771,1.6238,1.6617,1
8.3771,1.6262,1.6456,1
8.3771,1.6286,1.6593,1
8.3771,1.6230,1.6536,1
8.3771,1.6198,1.6536,1
8.3771,1.6174,1.6351,1
8.3771,1.6190,1.6278,1
8.3771,1.6166,1.6464,1
8.3771,1.6158,1.6601,1
8.3771,1.6182,1.6552,1
8.3771,1.6174,1.6568,1
8.3771,1.6117,1.6778,1
8.3771,1.6061,1.6770,1
8.3771,1.6109,1.6778,1
8.3771,1.6133,1.6689,1
8.3771,1.6133,1.6714,1
8.3771,1.6141,1.6786,1
8.3771,1.6109,1.6673,1
8.3771,1.6093,1.6560,1
8.3771,1.6286,1.6625,1
8.3771,1.6286,1.6568,1
8.3771,1.6262,1.6552,1
8.3771,1.6286,1.6560,1
8.3771,1.6303,1.6504,1
8.3771,1.6246,1.6649,1
8.3771,1.6206,1.6673,1
8.3771,1.6222,1.6512,1
8.3771,1.6214,1.6536,1
8.3771,1.6190,1.6560,1
8.3771,1.6004,1.6577,1
8.3771,1.6021,1.6625,1
8.3771,1.6021,1.6536,1
8.3771,1.5996,1.6496,1
8.3771,1.6037,1.6536,1
8.3771,1.6045,1.6432,1
8.3771,1.6045,1.6440,1
8.3771,1.6045,1.6641,1
8.3771,1.6093,1.6641,1
8.3771,1.6109,1.6609,1
8.3771,1.6085,1.6609,1
8.3771,1.6125,1.6472,1
8.3771,1.6149,1.6568,1
8.3771,1.6109,1.6673,1
8.3771,1.6109,1.6689,1
8.4285,1.6125,1.6722,1
8.4285,1.6149,1.6738,1
8.4285,1.6061,1.6657,1
8.4285,1.6077,1.6544,1
8.4285,1.6093,1.6536,1
8.4285,1.6093,1.6633,1
8.4285,1.6077,1.6665,1
8.4285,1.6125,1.6649,1
8.4285,1.6158,1.6746,1
8.4285,1.6117,1.6705,1
8.4285,1.6222,1.6786,1
8.4285,1.6190,1.6859,1
8.4285,1.6222,1.6810,1
8.4285,1.6174,1.6947,1
8.4285,1.6174,1.6988,1
8.4285,1.6166,1.6891,1
8.4285,1.6149,1.7004,1
8.4285,1.6166,1.6915,1
8.4285,1.6222,1.6625,1
8.4285,1.6190,1.6609,1
8.4285,1.6069,1.6577,1
8.4285,1.6125,1.6480,1
8.4285,1.6133,1.6472,1
8.4285,1.6149,1.6472,1
8.4285,1.6174,1.6488,1
8.4285,1.6214,1.6456,1
8.4285,1.6182,1.6423,1
8.4285,1.6158,1.6440,1
8.4285,1.6141,1.6625,1
8.4285,1.6166,1.6697,1
8.4285,1.6182,1.6625,1
8.4285,1.6133,1.6617,1
8.4285,1.6141,1.6609,1
8.4285,1.6149,1.6528,1
8.4285,1.6125,1.6560,1
8.4285,1.6133,1.6625,1
8.4285,1.6149,1.6657,1
8.4285,1.6125,1.6810,1
8.4285,1.6117,1.6649,1
8.4285,1.6158,1.6528,1
8.4285,1.6158,1.6552,1
8.4285,1.6166,1.6432,1
8.4285,1.6222,1.6343,1
8.4285,1.6214,1.6407,1
8.4285,1.6190,1.6359,1
8.4285,1.6174,1.6367,1
8.4285,1.6214,1.6367,1
8.4285,1.6190,1.6246,1
8.4285,1.6182,1.6423,1
8.4285,1.6158,1.6432,1
8.4285,1.6158,1.6496,1
8.4285,1.6141,1.6593,1
8.4285,1.6158,1.6552,1
8.4285,1.6149,1.6464,1
8.4285,1.6085,1.6351,1
8.4285,1.6069,1.6295,1
8.4285,1.6045,1.6246,1
8.4285,1.6069,1.6230,1
8.4285,1.6045,1.6117,1
8.4285,1.6021,1.6198,1
8.4285,1.6101,1.6125,1
8.4285,1.6101,1.6045,1
8.4285,1.5996,1.6311,1
8.4285,1.6037,1.6327,1
8.4285,1.6133,1.6488,1
8.4285,1.6101,1.6520,1
8.4285,1.6093,1.6496,1
8.4285,1.6149,1.6351,1
8.4285,1.6166,1.6278,1
8.4285,1.6149,1.6423,1
8.4285,1.6109,1.6472,1
8.4285,1.6125,1.6585,1
8.4285,1.6141,1.6504,1
8.4285,1.6101,1.6472,1
8.4285,1.6149,1.6375,1
8.4285,1.6190,1.6303,1
8.4285,1.6166,1.6407,1
8.4285,1.6149,1.6738,1
8.4285,1.6182,1.6738,1
8.4285,1.6182,1.6528,1
8.4285,1.6117,1.6512,1
8.4285,1.6158,1.6528,1
8.4285,1.6166,1.6432,1
8.4285,1.6149,1.6568,1
8.4285,1.6133,1.6601,1
8.4285,1.6133,1.6673,1
8.4285,1.6125,1.6536,1
8.4285,1.6085,1.6351,1
8.4285,1.6109,1.6359,1
8.4285,1.6101,1.6440,1
8.4285,1.6093,1.6496,1
8.4285,1.6053,1.6214,1
8.4285,1.6069,1.6214,1
8.4285,1.6053,1.6133,1
8.4285,1.6037,1.6125,1
8.4285,1.6085,1.6166,1
8.4285,1.6109,1.6303,1
8.4285,1.6109,1.6440,1
8.4285,1.6085,1.6609,1
8.4285,1.6141,1.6504,1
8.4285,1.6133,1.6391,1
8.4285,1.6141,1.6786,1
8.4285,1.6182,1.6899,1
8.4760,1.6222,1.6818,1
8.4760,1.6158,1.6891,1
8.4760,1.6133,1.6802,1
8.4760,1.6141,1.6641,1
8.4760,1.6141,1.6375,1
8.4760,1.6109,1.6319,1
8.4760,1.6141,1.6303,1
8.4760,1.6166,1.6367,1
8.4760,1.6117,1.5940,1
8.4760,1.6093,1.5988,1
8.4760,1.6077,1.6053,1
8.4760,1.6061,1.5996,1
8.4760,1.6029,1.5988,1
8.4760,1.5940,1.6037,1
8.4760,1.5964,1.6004,1
8.4760,1.5940,1.5972,1
8.4760,1.5908,1.6077,1
8.4760,1.5932,1.6004,1
8.4760,1.5924,1.6351,1
8.4760,1.5924,1.6238,1
8.4760,1.5972,1.6286,1
8.4760,1.6021,1.6286,1
8.4760,1.5916,1.6222,1
8.4760,1.6021,1.6238,1
8.4760,1.5996,1.6399,1
8.4760,1.6004,1.6295,1
8.4760,1.5988,1.6399,1
8.4760,1.6021,1.6359,1
8.4760,1.6069,1.6343,1
8.4760,1.6037,1.6311,1
8.4760,1.6037,1.6327,1
8.4760,1.6069,1.6327,1
8.4760,1.6109,1.6432,1
8.4760,1.6085,1.6456,1
8.4760,1.6093,1.6423,1
8.4760,1.6069,1.6528,1
8.4760,1.6037,1.6286,1
8.4760,1.5988,1.6448,1
8.4760,1.5908,1.6480,1
8.4760,1.5900,1.6448,1
8.4760,1.5835,1.6560,1
8.4760,1.5835,1.6399,1
8.4760,1.5690,1.6391,1
8.4760,1.5682,1.6440,1
8.4760,1.5714,1.6423,1
8.4760,1.5811,1.6544,1
8.4760,1.5827,1.6552,1
8.4760,1.5851,1.6617,1
8.4760,1.5988,1.6568,1
8.4760,1.5964,1.6697,1
8.4760,1.5988,1.6609,1
8.4760,1.6085,1.6730,1
8.4760,1.6270,1.6585,1
8.4760,1.6206,1.6528,1
8.4760,1.6101,1.6625,1
8.4760,1.6109,1.6560,1
8.4760,1.6093,1.6593,1
8.4760,1.6029,1.6560,1
8.4760,1.5964,1.6560,1
8.4760,1.6021,1.6423,1
8.4760,1.5980,1.6528,1
8.4760,1.5827,1.6681,1
8.4760,1.5924,1.6810,1
8.4760,1.5916,1.6834,1
8.4760,1.5964,1.6907,1
8.4760,1.5924,1.6794,1
8.4760,1.5948,1.6665,1
8.4760,1.5972,1.6544,1
8.4760,1.5940,1.6464,1
8.4760,1.5972,1.6577,1
8.4760,1.6012,1.6375,1
8.4760,1.6021,1.6335,1
8.4760,1.6012,1.6520,1
8.4760,1.6117,1.6496,1
8.4760,1.6158,1.6375,1
8.4760,1.6141,1.6399,1
8.4760,1.6174,1.6609,1
8.4760,1.6206,1.6641,1
8.4760,1.6238,1.6697,1
8.4760,1.6190,1.6714,1
8.4760,1.6254,1.6762,1
8.4760,1.6214,1.6617,1
8.4760,1.6166,1.6399,1
8.4760,1.6158,1.6359,1
8.4760,1.6133,1.6303,1
8.4760,1.6141,1.6456,1
8.4760,1.6101,1.6375,1
8.4760,1.6158,1.6311,1
8.4760,1.6166,1.6303,1
8.4760,1.6166,1.6415,1
8.4760,1.6133,1.6399,1
8.4760,1.6158,1.6415,1
8.4760,1.6141,1.6440,1
8.4760,1.6125,1.6375,1
8.4760,1.6149,1.6391,1
8.5200,1.6149,1.6286,1
8.5200,1.6117,1.6407,1
8.5200,1.6085,1.6415,1
8.5200,1.6117,1.6448,1
8.5200,1.6133,1.6448,1
8.5200,1.6109,1.6488,1
8.5200,1.6182,1.6593,1
8.5200,1.6190,1.6609,1
8.5200,1.6182,1.6746,1
8.5200,1.6158,1.6762,1
8.5200,1.6149,1.6810,1
8.5200,1.6174,1.6722,1
8.5200,1.6174,1.6818,1
8.5200,1.5988,1.6859,1
8.5200,1.5956,1.6504,1
8.5200,1.5924,1.6536,1
8.5200,1.5900,1.6407,1
8.5200,1.5900,1.6456,1
8.5200,1.5771,1.6472,1
8.5200,1.5795,1.6601,1
8.5200,1.5851,1.6512,1
8.5200,1.5875,1.6552,1
8.5200,1.5819,1.6488,1
8.5200,1.6004,1.6464,1
8.5200,1.6045,1.6802,1
8.5200,1.6037,1.6891,1
8.5200,1.6029,1.6963,1
8.5200,1.6069,1.6971,1
8.5200,1.6190,1.6867,1
8.5200,1.6037,1.6770,1
8.5200,1.6021,1.6875,1
8.5200,1.6012,1.6826,1
8.5200,1.6029,1.6842,1
8.5200,1.5972,1.6834,1
8.5200,1.5964,1.6697,1
8.5200,1.5972,1.6577,1
8.5200,1.5948,1.6560,1
8.5200,1.5924,1.6496,1
8.5200,1.5932,1.6552,1
8.5200,1.6037,1.6705,1
8.5200,1.6004,1.6641,1
8.5200,1.6029,1.6520,1
8.5200,1.6037,1.6536,1
8.5200,1.6012,1.6593,1
8.5200,1.6021,1.6633,1
8.5200,1.6045,1.6754,1
8.5200,1.6053,1.6794,1
8.5200,1.6037,1.6979,1
8.5200,1.6085,1.6883,1
8.5200,1.6133,1.6673,1
8.5200,1.6149,1.6536,1
8.5200,1.6117,1.6560,1
8.5200,1.6141,1.6601,1
8.5200,1.6174,1.6480,1
8.5200,1.6158,1.6512,1
8.5200,1.6190,1.6391,1
8.5200,1.6190,1.6319,1
8.5200,1.6141,1.6085,1
8.5200,1.6077,1.6158,1
8.5200,1.6101,1.6286,1
8.5200,1.6077,1.6480,1
8.5200,1.6069,1.6552,1
8.5200,1.6061,1.6544,1
8.5200,1.6085,1.6512,1
8.5200,1.6053,1.6423,1
8.5200,1.6045,1.6496,1
8.5200,1.6133,1.6641,1
8.5200,1.6158,1.6625,1
8.5200,1.6158,1.6738,1
8.5200,1.6133,1.6851,1
8.5200,1.6158,1.6794,1
8.5200,1.6166,1.6867,1
8.5200,1.6158,1.6810,1
8.5200,1.6182,1.6996,1
8.5200,1.6246,1.7245,1
8.5200,1.6198,1.7092,1
8.5200,1.6133,1.6923,1
8.5200,1.6149,1.6923,1
8.5200,1.6158,1.6730,1
8.5200,1.6133,1.6617,1
8.5200,1.6141,1.6601,1
8.5200,1.6174,1.6552,1
8.5200,1.6198,1.6673,1
8.5200,1.6166,1.6681,1
8.5200,1.6158,1.6472,1
8.5200,1.6166,1.6528,1
8.5200,1.6166,1.6520,1
8.5200,1.6222,1.6593,1
8.5200,1.6230,1.6762,1
8.5200,1.6222,1.6746,1
8.5200,1.6214,1.6891,1
8.5708,1.6238,1.6979,1
8.5708,1.6222,1.7092,1
8.5708,1.6206,1.6931,1
8.5708,1.6222,1.6963,1
8.5708,1.6230,1.7028,1
8.5708,1.6222,1.7100,1
8.5708,1.6206,1.7116,1
8.5708,1.6238,1.6996,1
8.5708,1.6254,1.6971,1
8.5708,1.6238,1.6762,1
8.5708,1.6222,1.6673,1
8.5708,1.6222,1.6488,1
8.5708,1.6238,1.6568,1
8.5708,1.6198,1.6456,1
8.5708,1.6230,1.6327,1
8.5708,1.6206,1.6278,1
8.5708,1.6166,1.6278,1
8.5708,1.6166,1.6198,1
8.5708,1.6190,1.6158,1
8.5708,1.6166,1.6295,1
8.5708,1.6141,1.6303,1
8.5708,1.6190,1.6367,1
8.5708,1.6190,1.6166,1
8.5708,1.6182,1.6254,1
8.5708,1.6166,1.6254,1
8.5708,1.6206,1.6391,1
8.5708,1.6190,1.6456,1
8.5708,1.6149,1.6625,1
8.5708,1.6149,1.6714,1
8.5708,1.6158,1.6456,1
8.5708,1.6109,1.6440,1
8.5708,1.6109,1.6335,1
8.5708,1.6149,1.6480,1
8.5708,1.6141,1.6568,1
8.5708,1.6109,1.6601,1
