Zaman (sn),Voltaj (V),Label
37.8066,1.6649,1
37.8067,1.6641,1
37.8067,1.6649,1
37.8067,1.6625,1
37.8067,1.6552,1
37.8067,1.6512,1
37.8067,1.6456,1
37.8067,1.6423,1
37.8068,1.6319,1
37.8068,1.6311,1
37.8068,1.6270,1
37.8068,1.6311,1
37.8068,1.6335,1
37.8068,1.6367,1
37.8069,1.6456,1
37.8069,1.6496,1
37.8069,1.6488,1
37.8069,1.6520,1
37.8069,1.6520,1
37.8069,1.6552,1
37.8069,1.6609,1
37.8070,1.6625,1
37.8070,1.6617,1
37.8070,1.6609,1
37.8070,1.6552,1
37.8070,1.6520,1
37.8071,1.6536,1
37.8071,1.6488,1
37.8071,1.6448,1
37.8071,1.6383,1
37.8071,1.6319,1
37.8071,1.6278,1
37.8071,1.6262,1
37.8072,1.6262,1
37.8072,1.6311,1
37.8072,1.6359,1
37.8072,1.6367,1
37.8072,1.6440,1
37.8072,1.6520,1
37.8072,1.6560,1
37.8073,1.6601,1
37.8073,1.6625,1
37.8073,1.6633,1
37.8073,1.6617,1
37.8073,1.6560,1
37.8073,1.6496,1
37.8073,1.6544,1
37.8074,1.6472,1
37.8074,1.6399,1
37.8074,1.6375,1
37.8074,1.6303,1
37.8074,1.6295,1
37.8074,1.6254,1
37.8074,1.6286,1
37.8075,1.6335,1
37.8075,1.6375,1
37.8075,1.6335,1
37.8075,1.6391,1
37.8075,1.6423,1
37.8076,1.6432,1
37.8076,1.6512,1
37.8076,1.6536,1
37.8076,1.6536,1
37.8076,1.6512,1
37.8076,1.6883,1
37.8076,1.6810,1
37.8077,1.6738,1
37.8077,1.6633,1
37.8077,1.6577,1
37.8077,1.6528,1
37.8077,1.6480,1
37.8077,1.6456,1
37.8077,1.6480,1
37.8078,1.6488,1
37.8078,1.6141,1
37.8078,1.6214,1
37.8078,1.6319,1
37.8078,1.6432,1
37.8078,1.6536,1
37.8078,1.6641,1
37.8079,1.6705,1
37.8079,1.6730,1
37.8079,1.6754,1
37.8079,1.6738,1
37.8079,1.6697,1
37.8079,1.6665,1
37.8080,1.6617,1
37.8080,1.6568,1
37.8080,1.6464,1
37.8080,1.6415,1
37.8080,1.6399,1
37.8081,1.6383,1
37.8081,1.6327,1
37.8081,1.6359,1
37.8081,1.6391,1
37.8081,1.6407,1
37.8081,1.6432,1
37.8082,1.6423,1
37.8082,1.6496,1
37.8082,1.6480,1
37.8082,1.6472,1
37.8082,1.6472,1
37.8082,1.6536,1
37.8082,1.6512,1
37.8083,1.6448,1
37.8083,1.6423,1
37.8083,1.6351,1
37.8083,1.6335,1
37.8083,1.6303,1
37.8083,1.6278,1
37.8083,1.6262,1
37.8084,1.6286,1
37.8084,1.6254,1
37.8084,1.6270,1
37.8084,1.6335,1
37.8084,1.6359,1
37.8084,1.6456,1
37.8084,1.6512,1
37.8085,1.6577,1
37.8085,1.6657,1
37.8085,1.6705,1
37.8085,1.6681,1
37.8085,1.6681,1
37.8086,1.6665,1
37.8086,1.6625,1
37.8086,1.6577,1
37.8086,1.6601,1
37.8086,1.6544,1
37.8086,1.6504,1
37.8087,1.6440,1
37.8087,1.6407,1
37.8087,1.6488,1
37.8087,1.6488,1
37.8087,1.6512,1
37.8087,1.6536,1
37.8087,1.6577,1
37.8088,1.6528,1
37.8088,1.6568,1
37.8088,1.6593,1
37.8088,1.6617,1
37.8088,1.6625,1
37.8088,1.6552,1
37.8088,1.6560,1
37.8089,1.6560,1
37.8089,1.6560,1
37.8089,1.6585,1
37.8089,1.6536,1
37.8089,1.6504,1
37.8089,1.6585,1
37.8089,1.6544,1
37.8090,1.6504,1
37.8090,1.6472,1
37.8090,1.6456,1
37.8090,1.6423,1
37.8090,1.6464,1
37.8091,1.6472,1
37.8091,1.6544,1
37.8091,1.6593,1
37.8091,1.6520,1
37.8639,1.6577,1
37.8639,1.6617,1
37.8639,1.6681,1
37.8639,1.6681,1
37.8640,1.6689,1
37.8640,1.6625,1
37.8640,1.6568,1
37.8640,1.6512,1
37.8640,1.6399,1
37.8640,1.6359,1
37.8641,1.6335,1
37.8641,1.6335,1
37.8641,1.6319,1
37.8641,1.6335,1
37.8641,1.6327,1
37.8641,1.6367,1
37.8642,1.6399,1
37.8642,1.6448,1
37.8642,1.6375,1
37.8642,1.6423,1
37.8642,1.6456,1
37.8642,1.6472,1
37.8643,1.6488,1
37.8643,1.6488,1
37.8643,1.6560,1
37.8643,1.6536,1
37.8643,1.6504,1
37.8643,1.6464,1
37.8643,1.6601,1
37.8644,1.6536,1
37.8644,1.6472,1
37.8644,1.6407,1
37.8644,1.6343,1
37.8644,1.6319,1
37.8644,1.6278,1
37.8645,1.6303,1
37.8645,1.6335,1
37.8645,1.6383,1
37.8645,1.6423,1
37.8645,1.6464,1
37.8645,1.6512,1
37.8646,1.6585,1
37.8646,1.6585,1
37.8646,1.6601,1
37.8646,1.6577,1
37.8646,1.6544,1
37.8646,1.6504,1
37.8647,1.6456,1
37.8647,1.6407,1
37.8647,1.6383,1
37.8647,1.6367,1
37.8647,1.6335,1
37.8647,1.6359,1
37.8647,1.6383,1
37.8648,1.6456,1
37.8648,1.6488,1
37.8648,1.6520,1
37.8648,1.6593,1
37.8648,1.6625,1
37.8648,1.6641,1
37.8649,1.6641,1
37.8649,1.6649,1
37.8649,1.6657,1
37.8649,1.6633,1
37.8649,1.6577,1
37.8649,1.6560,1
37.8650,1.6552,1
37.8650,1.6472,1
37.8650,1.6440,1
37.8650,1.6407,1
37.8650,1.6375,1
37.8650,1.6343,1
37.8650,1.6327,1
37.8651,1.6319,1
37.8651,1.6327,1
37.8651,1.6351,1
37.8651,1.6359,1
37.8651,1.6415,1
37.8651,1.6488,1
37.8652,1.6552,1
37.8652,1.6601,1
37.8652,1.6657,1
37.8652,1.6665,1
37.8652,1.6665,1
37.8652,1.6641,1
37.8652,1.6593,1
37.8653,1.6568,1
37.8653,1.6520,1
37.8653,1.6472,1
37.8653,1.6448,1
37.8653,1.6415,1
37.8653,1.6383,1
37.8654,1.6391,1
37.8654,1.6399,1
37.8654,1.6432,1
37.8654,1.6480,1
37.8654,1.6520,1
37.8654,1.6552,1
37.8655,1.6568,1
37.8655,1.6593,1
37.8655,1.6625,1
37.8655,1.6649,1
37.8655,1.6673,1
37.8655,1.6681,1
37.8656,1.6681,1
37.8656,1.6649,1
37.8656,1.6633,1
37.8656,1.6617,1
37.8656,1.6577,1
37.8656,1.6536,1
37.8657,1.6504,1
37.8657,1.6472,1
37.8657,1.6440,1
37.9215,1.6432,1
37.9215,1.6432,1
37.9215,1.6472,1
37.9216,1.6504,1
37.9216,1.6544,1
37.9216,1.6601,1
37.9216,1.6641,1
37.9216,1.6689,1
37.9216,1.6714,1
37.9217,1.6738,1
37.9217,1.6722,1
37.9217,1.6697,1
37.9217,1.6649,1
37.9217,1.6593,1
37.9217,1.6536,1
37.9217,1.6480,1
37.9218,1.6440,1
37.9218,1.6415,1
37.9218,1.6407,1
37.9218,1.6399,1
37.9218,1.6423,1
37.9218,1.6448,1
37.9219,1.6480,1
37.9219,1.6520,1
37.9219,1.6552,1
37.9219,1.6585,1
37.9219,1.6609,1
37.9219,1.6617,1
37.9220,1.6625,1
37.9220,1.6625,1
37.9220,1.6617,1
37.9220,1.6609,1
37.9220,1.6593,1
37.9220,1.6568,1
37.9221,1.6544,1
37.9221,1.6512,1
37.9221,1.6480,1
37.9221,1.6448,1
37.9221,1.6407,1
37.9221,1.6391,1
37.9222,1.6391,1
37.9222,1.6391,1
37.9222,1.6407,1
37.9222,1.6440,1
37.9222,1.6480,1
37.9222,1.6536,1
37.9223,1.6585,1
37.9223,1.6633,1
37.9223,1.6665,1
37.9223,1.6689,1
37.9223,1.6689,1
37.9223,1.6657,1
37.9224,1.6617,1
37.9224,1.6568,1
37.9224,1.6512,1
37.9224,1.6456,1
37.9224,1.6415,1
37.9224,1.6375,1
37.9225,1.6367,1
37.9225,1.6367,1
37.9225,1.6383,1
37.9225,1.6407,1
37.9225,1.6456,1
37.9226,1.6488,1
37.9226,1.6528,1
37.9226,1.6560,1
37.9226,1.6585,1
37.9226,1.6609,1
37.9226,1.6625,1
37.9227,1.6633,1
37.9227,1.6641,1
37.9227,1.6625,1
37.9227,1.6609,1
37.9227,1.6577,1
37.9227,1.6536,1
37.9227,1.6504,1
37.9228,1.6456,1
37.9228,1.6415,1
37.9228,1.6375,1
37.9228,1.6343,1
37.9228,1.6319,1
37.9228,1.6327,1
37.9229,1.6351,1
37.9229,1.6399,1
37.9229,1.6448,1
37.9229,1.6504,1
37.9229,1.6560,1
37.9229,1.6593,1
37.9229,1.6633,1
37.9230,1.6665,1
37.9230,1.6657,1
37.9230,1.6633,1
37.9230,1.6585,1
37.9230,1.6536,1
37.9231,1.6488,1
37.9231,1.6432,1
37.9231,1.6391,1
37.9231,1.6375,1
37.9231,1.6351,1
37.9231,1.6343,1
37.9231,1.6359,1
37.9232,1.6375,1
37.9232,1.6415,1
37.9232,1.6456,1
37.9232,1.6488,1
37.9232,1.6528,1
37.9232,1.6552,1
37.9233,1.6577,1
37.9233,1.6593,1
37.9233,1.6593,1
37.9233,1.6601,1
37.9233,1.6601,1
37.9233,1.6593,1
37.9233,1.6568,1
37.9234,1.6544,1
37.9792,1.6512,1
37.9792,1.6480,1
37.9793,1.6456,1
37.9793,1.6415,1
37.9793,1.6399,1
37.9793,1.6391,1
37.9793,1.6399,1
37.9793,1.6407,1
37.9794,1.6440,1
37.9794,1.6472,1
37.9794,1.6520,1
37.9794,1.6577,1
37.9794,1.6609,1
37.9794,1.6649,1
37.9795,1.6665,1
37.9795,1.6657,1
37.9795,1.6641,1
37.9795,1.6601,1
37.9795,1.6552,1
37.9795,1.6488,1
37.9796,1.6432,1
37.9796,1.6391,1
37.9796,1.6359,1
37.9796,1.6343,1
37.9796,1.6343,1
37.9796,1.6351,1
37.9797,1.6367,1
37.9797,1.6399,1
37.9797,1.6440,1
37.9797,1.6488,1
37.9797,1.6528,1
37.9797,1.6552,1
37.9798,1.6585,1
37.9798,1.6593,1
37.9798,1.6593,1
37.9798,1.6601,1
37.9798,1.6593,1
37.9798,1.6585,1
37.9798,1.6577,1
37.9799,1.6544,1
37.9799,1.6496,1
37.9799,1.6464,1
37.9799,1.6407,1
37.9799,1.6375,1
37.9799,1.6351,1
37.9800,1.6335,1
37.9800,1.6343,1
37.9800,1.6367,1
37.9800,1.6391,1
37.9800,1.6448,1
37.9800,1.6504,1
37.9801,1.6560,1
37.9801,1.6609,1
37.9801,1.6649,1
37.9801,1.6673,1
37.9801,1.6673,1
37.9801,1.6641,1
37.9801,1.6601,1
37.9802,1.6544,1
37.9802,1.6488,1
37.9802,1.6432,1
37.9802,1.6391,1
37.9802,1.6367,1
37.9802,1.6359,1
37.9803,1.6351,1
37.9803,1.6359,1
37.9803,1.6391,1
37.9804,1.6432,1
37.9804,1.6480,1
37.9804,1.6520,1
37.9804,1.6544,1
37.9804,1.6577,1
37.9804,1.6593,1
37.9804,1.6593,1
37.9805,1.6601,1
37.9805,1.6601,1
37.9805,1.6593,1
37.9805,1.6585,1
37.9805,1.6601,1
37.9805,1.6568,1
37.9806,1.6528,1
37.9806,1.6488,1
37.9806,1.6456,1
37.9806,1.6391,1
37.9806,1.6399,1
37.9806,1.6383,1
37.9807,1.6383,1
37.9807,1.6375,1
37.9807,1.6375,1
37.9807,1.6432,1
37.9807,1.6488,1
37.9807,1.6544,1
37.9808,1.6593,1
37.9808,1.6673,1
37.9808,1.6673,1
37.9808,1.6673,1
37.9808,1.6649,1
37.9808,1.6633,1
37.9808,1.6577,1
37.9809,1.6512,1
37.9809,1.6464,1
37.9809,1.6415,1
37.9809,1.6383,1
37.9809,1.6383,1
37.9809,1.6335,1
37.9810,1.6351,1
37.9810,1.6391,1
37.9810,1.6432,1
37.9810,1.6496,1
37.9810,1.6528,1
37.9810,1.6552,1
37.9811,1.6577,1
37.9811,1.6601,1
37.9811,1.6633,1
37.9811,1.6738,1
37.9811,1.6697,1
38.0371,1.6681,1
38.0371,1.6657,1
38.0371,1.6609,1
38.0372,1.6577,1
38.0372,1.6544,1
38.0372,1.6504,1
38.0372,1.6464,1
38.0372,1.6407,1
38.0372,1.6319,1
38.0373,1.6335,1
38.0373,1.6343,1
38.0373,1.6367,1
38.0373,1.6407,1
38.0373,1.6464,1
38.0373,1.6520,1
38.0374,1.6577,1
38.0374,1.6625,1
38.0374,1.6665,1
38.0374,1.6609,1
38.0374,1.6601,1
38.0374,1.6585,1
38.0374,1.6552,1
38.0375,1.6480,1
38.0375,1.6432,1
38.0375,1.6383,1
38.0375,1.6343,1
38.0375,1.6311,1
38.0376,1.6295,1
38.0376,1.6375,1
38.0376,1.6391,1
38.0376,1.6399,1
38.0376,1.6432,1
38.0376,1.6448,1
38.0376,1.6480,1
38.0377,1.6504,1
38.0377,1.6528,1
38.0377,1.6544,1
38.0377,1.6552,1
38.0377,1.6552,1
38.0377,1.6552,1
38.0378,1.6544,1
38.0378,1.6536,1
38.0378,1.6552,1
38.0378,1.6528,1
38.0378,1.6480,1
38.0378,1.6423,1
38.0378,1.6391,1
38.0379,1.6359,1
38.0379,1.6335,1
38.0379,1.6311,1
38.0379,1.6319,1
38.0379,1.6335,1
38.0379,1.6375,1
38.0380,1.6440,1
38.0380,1.6552,1
38.0380,1.6778,1
38.0380,1.6818,1
38.0380,1.6851,1
38.0381,1.6851,1
38.0381,1.6851,1
38.0381,1.6818,1
38.0381,1.6786,1
38.0381,1.6730,1
38.0381,1.6657,1
38.0382,1.6560,1
38.0382,1.6359,1
38.0382,1.6343,1
38.0382,1.6351,1
38.0382,1.6375,1
38.0382,1.6407,1
38.0382,1.6448,1
38.0383,1.6472,1
38.0383,1.6512,1
38.0383,1.6601,1
38.0383,1.6633,1
38.0383,1.6617,1
38.0383,1.6609,1
38.0384,1.6536,1
38.0384,1.6552,1
38.0384,1.6568,1
38.0384,1.6577,1
38.0384,1.6568,1
38.0384,1.6552,1
38.0384,1.6488,1
38.0385,1.6448,1
38.0385,1.6383,1
38.0385,1.6399,1
38.0385,1.6440,1
38.0386,1.6407,1
38.0386,1.6367,1
38.0386,1.6351,1
38.0386,1.6286,1
38.0386,1.6311,1
38.0386,1.6383,1
38.0386,1.6432,1
38.0387,1.6536,1
38.0387,1.6544,1
38.0387,1.6641,1
38.0387,1.6633,1
38.0387,1.6617,1
38.0387,1.6609,1
38.0388,1.6625,1
38.0388,1.6560,1
38.0388,1.6464,1
38.0388,1.6415,1
38.0388,1.6295,1
38.0388,1.6270,1
38.0389,1.6198,1
38.0389,1.6222,1
38.0389,1.6286,1
38.0389,1.6303,1
38.0389,1.6343,1
38.0389,1.6391,1
38.0389,1.6432,1
38.0390,1.6456,1
38.0946,1.6577,1
38.0946,1.6601,1
38.0946,1.6609,1
38.0946,1.6617,1
38.0947,1.6568,1
38.0947,1.6560,1
38.0947,1.6560,1
38.0947,1.6536,1
38.0947,1.6520,1
38.0947,1.6504,1
38.0948,1.6359,1
38.0948,1.6327,1
38.0948,1.6286,1
38.0948,1.6246,1
38.0948,1.6262,1
38.0948,1.6262,1
38.0949,1.6278,1
38.0949,1.6319,1
38.0949,1.6375,1
38.0949,1.6415,1
38.0949,1.6625,1
38.0949,1.6665,1
38.0950,1.6714,1
38.0950,1.6738,1
38.0950,1.6714,1
38.0950,1.6681,1
38.0950,1.6617,1
38.0950,1.6560,1
38.0951,1.6472,1
38.0951,1.6423,1
38.0951,1.6335,1
38.0951,1.6311,1
38.0951,1.6270,1
38.0951,1.6278,1
38.0952,1.6343,1
38.0952,1.6383,1
38.0952,1.6440,1
38.0952,1.6472,1
38.0952,1.6528,1
38.0952,1.6560,1
38.0952,1.6593,1
38.0953,1.6617,1
38.0953,1.6657,1
38.0953,1.6657,1
38.0953,1.6633,1
38.0953,1.6641,1
38.0953,1.6657,1
38.0954,1.6649,1
38.0954,1.6617,1
38.0954,1.6577,1
38.0954,1.6528,1
38.0954,1.6480,1
38.0954,1.6440,1
38.0955,1.6415,1
38.0955,1.6391,1
38.0955,1.6383,1
38.0955,1.6359,1
38.0955,1.6391,1
38.0956,1.6440,1
38.0956,1.6496,1
38.0956,1.6560,1
38.0956,1.6609,1
38.0956,1.6633,1
38.0956,1.6665,1
38.0957,1.6641,1
38.0957,1.6617,1
38.0957,1.6609,1
38.0957,1.6552,1
38.0957,1.6464,1
38.0957,1.6423,1
38.0957,1.6359,1
38.0958,1.6335,1
38.0958,1.6335,1
38.0958,1.6327,1
38.0958,1.6440,1
38.0958,1.6456,1
38.0958,1.6480,1
38.0959,1.6504,1
38.0959,1.6560,1
38.0959,1.6585,1
38.0959,1.6568,1
38.0959,1.6585,1
38.0959,1.6633,1
38.0959,1.6633,1
38.0960,1.6568,1
38.0960,1.6568,1
38.0960,1.6560,1
38.0960,1.6552,1
38.0960,1.6520,1
38.0961,1.6488,1
38.0961,1.6544,1
38.0961,1.6512,1
38.0961,1.6440,1
38.0961,1.6407,1
38.0961,1.6399,1
38.0962,1.6399,1
38.0962,1.6391,1
38.0962,1.6423,1
38.0962,1.6649,1
38.0962,1.6689,1
38.0962,1.6697,1
38.0963,1.6746,1
38.0963,1.6770,1
38.0963,1.6794,1
38.0963,1.6770,1
38.0963,1.6754,1
38.0963,1.6673,1
38.0963,1.6633,1
38.0964,1.6415,1
38.0964,1.6391,1
38.0964,1.6440,1
38.0964,1.6407,1
38.0964,1.6407,1
38.0964,1.6415,1
38.0965,1.6432,1
38.1519,1.6456,1
38.1519,1.6536,1
38.1520,1.6585,1
38.1520,1.6625,1
38.1520,1.6649,1
38.1520,1.6617,1
38.1520,1.6633,1
38.1520,1.6705,1
38.1521,1.6697,1
38.1521,1.6714,1
38.1521,1.6697,1
38.1521,1.6617,1
38.1521,1.6585,1
38.1521,1.6552,1
38.1521,1.6512,1
38.1522,1.6472,1
38.1522,1.6464,1
38.1522,1.6375,1
38.1522,1.6359,1
38.1522,1.6327,1
38.1522,1.6343,1
38.1523,1.6423,1
38.1523,1.6472,1
38.1523,1.6512,1
38.1523,1.6560,1
38.1523,1.6601,1
38.1523,1.6577,1
38.1524,1.6601,1
38.1524,1.6657,1
38.1524,1.6657,1
38.1524,1.6633,1
38.1524,1.6593,1
38.1524,1.6552,1
38.1524,1.6480,1
38.1525,1.6440,1
38.1525,1.6391,1
38.1525,1.6399,1
38.1525,1.6488,1
38.1525,1.6432,1
38.1525,1.6432,1
38.1526,1.6448,1
38.1526,1.6456,1
38.1526,1.6440,1
38.1526,1.6520,1
38.1526,1.6536,1
38.1526,1.6568,1
38.1527,1.6593,1
38.1527,1.6496,1
38.1527,1.6512,1
38.1527,1.6528,1
38.1527,1.6504,1
38.1527,1.6552,1
38.1528,1.6552,1
38.1528,1.6512,1
38.1528,1.6496,1
38.1528,1.6464,1
38.1528,1.6432,1
38.1528,1.6415,1
38.1528,1.6391,1
38.1529,1.6383,1
38.1529,1.6407,1
38.1529,1.6407,1
38.1529,1.6391,1
38.1529,1.6432,1
38.1529,1.6552,1
38.1530,1.6593,1
38.1530,1.6577,1
38.1530,1.6617,1
38.1530,1.6633,1
38.1530,1.6625,1
38.1530,1.6601,1
38.1531,1.6552,1
38.1531,1.6544,1
38.1531,1.6480,1
38.1531,1.6359,1
38.1531,1.6319,1
38.1531,1.6383,1
38.1532,1.6375,1
38.1532,1.6367,1
38.1532,1.6375,1
38.1532,1.6399,1
38.1532,1.6440,1
38.1532,1.6480,1
38.1532,1.6512,1
38.1533,1.6560,1
38.1533,1.6585,1
38.1533,1.6568,1
38.1533,1.6585,1
38.1533,1.6641,1
38.1533,1.6649,1
38.1534,1.6649,1
38.1534,1.6625,1
38.1534,1.6601,1
38.1534,1.6577,1
38.1534,1.6528,1
38.1534,1.6504,1
38.1534,1.6464,1
38.1535,1.6440,1
38.1535,1.6367,1
38.1535,1.6359,1
38.1535,1.6367,1
38.1535,1.6399,1
38.1535,1.6448,1
38.1536,1.6496,1
38.1536,1.6689,1
38.1536,1.6722,1
38.1536,1.6778,1
38.1536,1.6770,1
38.1536,1.6754,1
38.1537,1.6746,1
38.1537,1.6722,1
38.1537,1.6673,1
38.1537,1.6617,1
38.1537,1.6544,1
38.1537,1.6367,1
38.2096,1.6327,1
38.2096,1.6311,1
38.2096,1.6335,1
38.2096,1.6375,1
38.2097,1.6399,1
38.2097,1.6423,1
38.2097,1.6464,1
38.2097,1.6504,1
38.2097,1.6568,1
38.2097,1.6577,1
38.2098,1.6617,1
38.2098,1.6343,1
38.2098,1.6367,1
38.2098,1.6391,1
38.2098,1.6407,1
38.2098,1.6415,1
38.2098,1.6415,1
38.2099,1.6407,1
38.2099,1.6375,1
38.2099,1.6343,1
38.2099,1.6286,1
38.2099,1.6520,1
38.2099,1.6456,1
38.2100,1.6399,1
38.2100,1.6359,1
38.2100,1.6319,1
38.2100,1.6311,1
38.2100,1.6311,1
38.2100,1.6351,1
38.2101,1.6383,1
38.2101,1.6440,1
38.2101,1.6480,1
38.2101,1.6520,1
38.2101,1.6560,1
38.2101,1.6560,1
38.2102,1.6552,1
38.2102,1.6528,1
38.2102,1.6488,1
38.2102,1.6440,1
38.2102,1.6415,1
38.2102,1.6383,1
38.2102,1.6367,1
38.2103,1.6359,1
38.2103,1.6343,1
38.2103,1.6367,1
38.2103,1.6407,1
38.2103,1.6456,1
38.2103,1.6496,1
38.2104,1.6544,1
38.2104,1.6593,1
38.2104,1.6633,1
38.2104,1.6665,1
38.2104,1.6689,1
38.2104,1.6689,1
38.2104,1.6689,1
38.2105,1.6681,1
38.2105,1.6665,1
38.2105,1.6641,1
38.2105,1.6593,1
38.2105,1.6552,1
38.2106,1.6504,1
38.2106,1.6456,1
38.2106,1.6407,1
38.2106,1.6375,1
38.2106,1.6367,1
38.2107,1.6359,1
38.2107,1.6375,1
38.2107,1.6415,1
38.2107,1.6456,1
38.2107,1.6512,1
38.2107,1.6560,1
38.2108,1.6609,1
38.2108,1.6641,1
38.2108,1.6665,1
38.2108,1.6665,1
38.2108,1.6641,1
38.2108,1.6601,1
38.2108,1.6552,1
38.2109,1.6496,1
38.2109,1.6440,1
38.2109,1.6391,1
38.2109,1.6359,1
38.2109,1.6351,1
38.2109,1.6343,1
38.2110,1.6351,1
38.2110,1.6375,1
38.2110,1.6415,1
38.2110,1.6440,1
38.2110,1.6480,1
38.2110,1.6512,1
38.2111,1.6536,1
38.2111,1.6560,1
38.2111,1.6568,1
38.2111,1.6577,1
38.2111,1.6585,1
38.2111,1.6585,1
38.2112,1.6568,1
38.2112,1.6560,1
38.2112,1.6536,1
38.2112,1.6512,1
38.2112,1.6472,1
38.2112,1.6432,1
38.2113,1.6391,1
38.2113,1.6359,1
38.2113,1.6327,1
38.2113,1.6327,1
38.2113,1.6343,1
38.2113,1.6367,1
38.2113,1.6407,1
38.2114,1.6456,1
38.2114,1.6512,1
38.2114,1.6560,1
38.2114,1.6609,1
38.2114,1.6633,1
38.2114,1.6649,1
38.2676,1.6625,1
38.2676,1.6593,1
38.2677,1.6528,1
38.2677,1.6472,1
38.2677,1.6423,1
38.2677,1.6383,1
38.2677,1.6351,1
38.2677,1.6327,1
38.2678,1.6327,1
38.2678,1.6335,1
38.2678,1.6375,1
38.2678,1.6399,1
38.2678,1.6456,1
38.2678,1.6496,1
38.2678,1.6536,1
38.2679,1.6568,1
38.2679,1.6601,1
38.2679,1.6593,1
38.2679,1.6609,1
38.2679,1.6609,1
38.2679,1.6593,1
38.2680,1.6593,1
38.2680,1.6577,1
38.2680,1.6544,1
38.2680,1.6512,1
38.2680,1.6464,1
38.2680,1.6432,1
38.2680,1.6423,1
38.2681,1.6391,1
38.2681,1.6383,1
38.2681,1.6391,1
38.2681,1.6399,1
38.2681,1.6440,1
38.2681,1.6480,1
38.2682,1.6528,1
38.2682,1.6601,1
38.2682,1.6633,1
38.2682,1.6665,1
38.2682,1.6689,1
38.2682,1.6681,1
38.2683,1.6673,1
38.2683,1.6625,1
38.2683,1.6577,1
38.2683,1.6520,1
38.2683,1.6472,1
38.2683,1.6415,1
38.2683,1.6383,1
38.2684,1.6367,1
38.2684,1.6367,1
38.2684,1.6399,1
38.2684,1.6407,1
38.2684,1.6448,1
38.2684,1.6488,1
38.2685,1.6520,1
38.2685,1.6544,1
38.2685,1.6585,1
38.2685,1.6609,1
38.2685,1.6617,1
38.2685,1.6617,1
38.2685,1.6609,1
38.2686,1.6609,1
38.2686,1.6593,1
38.2686,1.6568,1
38.2686,1.6536,1
38.2686,1.6504,1
38.2687,1.6456,1
38.2687,1.6423,1
38.2687,1.6391,1
38.2687,1.6343,1
38.2687,1.6327,1
38.2687,1.6319,1
38.2687,1.6335,1
38.2688,1.6375,1
38.2688,1.6440,1
38.2688,1.6488,1
38.2688,1.6536,1
38.2688,1.6585,1
38.2688,1.6625,1
38.2689,1.6665,1
38.2689,1.6673,1
38.2689,1.6657,1
38.2689,1.6609,1
38.2689,1.6560,1
38.2689,1.6520,1
38.2689,1.6456,1
38.2690,1.6407,1
38.2690,1.6375,1
38.2690,1.6343,1
38.2690,1.6335,1
38.2690,1.6343,1
38.2691,1.6359,1
38.2691,1.6407,1
38.2691,1.6440,1
38.2691,1.6472,1
38.2691,1.6520,1
38.2691,1.6560,1
38.2692,1.6585,1
38.2692,1.6609,1
38.2692,1.6593,1
38.2692,1.6601,1
38.2692,1.6601,1
38.2692,1.6585,1
38.2692,1.6568,1
38.2693,1.6528,1
38.2693,1.6504,1
38.2693,1.6456,1
38.2693,1.6423,1
38.2693,1.6391,1
38.2693,1.6383,1
38.2694,1.6359,1
38.2694,1.6351,1
38.2694,1.6367,1
38.2694,1.6399,1
38.2694,1.6448,1
38.2694,1.6504,1
38.2694,1.6568,1
38.3258,1.6609,1
38.3258,1.6641,1
38.3259,1.6665,1
38.3259,1.6673,1
38.3259,1.6617,1
38.3259,1.6577,1
38.3259,1.6633,1
38.3259,1.6560,1
38.3259,1.6504,1
38.3260,1.6448,1
38.3260,1.6407,1
38.3260,1.6391,1
38.3260,1.6407,1
38.3260,1.6399,1
38.3261,1.6464,1
38.3261,1.6488,1
38.3261,1.6423,1
38.3261,1.6464,1
38.3261,1.6504,1
38.3261,1.6528,1
38.3262,1.6568,1
38.3262,1.6593,1
38.3262,1.6601,1
38.3262,1.6617,1
38.3262,1.6609,1
38.3262,1.6609,1
38.3262,1.6601,1
38.3263,1.6568,1
38.3263,1.6536,1
38.3263,1.6496,1
38.3263,1.6464,1
38.3263,1.6432,1
38.3263,1.6399,1
38.3264,1.6383,1
38.3264,1.6383,1
38.3264,1.6399,1
38.3264,1.6415,1
38.3264,1.6456,1
38.3264,1.6504,1
38.3264,1.6560,1
38.3265,1.6601,1
38.3265,1.6633,1
38.3265,1.6657,1
38.3265,1.6665,1
38.3265,1.6641,1
38.3265,1.6601,1
38.3266,1.6560,1
38.3266,1.6488,1
38.3266,1.6440,1
38.3266,1.6391,1
38.3266,1.6367,1
38.3266,1.6343,1
38.3267,1.6335,1
38.3267,1.6343,1
38.3267,1.6375,1
38.3267,1.6415,1
38.3267,1.6448,1
38.3267,1.6512,1
38.3268,1.6544,1
38.3268,1.6577,1
38.3268,1.6593,1
38.3268,1.6617,1
38.3268,1.6617,1
38.3268,1.6609,1
38.3268,1.6601,1
38.3269,1.6577,1
38.3269,1.6552,1
38.3269,1.6520,1
38.3269,1.6488,1
38.3269,1.6448,1
38.3269,1.6415,1
38.3270,1.6383,1
38.3270,1.6359,1
38.3270,1.6359,1
38.3270,1.6311,1
38.3270,1.6327,1
38.3270,1.6383,1
38.3271,1.6432,1
38.3271,1.6480,1
38.3271,1.6528,1
38.3271,1.6568,1
38.3271,1.6601,1
38.3271,1.6593,1
38.3272,1.6593,1
38.3272,1.6625,1
38.3272,1.6585,1
38.3272,1.6520,1
38.3272,1.6480,1
38.3272,1.6432,1
38.3272,1.6391,1
38.3273,1.6375,1
38.3273,1.6359,1
38.3273,1.6367,1
38.3273,1.6375,1
38.3273,1.6399,1
38.3273,1.6423,1
38.3274,1.6456,1
38.3274,1.6480,1
38.3274,1.6512,1
38.3274,1.6536,1
38.3274,1.6544,1
38.3274,1.6544,1
38.3274,1.6528,1
38.3275,1.6536,1
38.3275,1.6536,1
38.3275,1.6528,1
38.3275,1.6504,1
38.3275,1.6488,1
38.3275,1.6456,1
38.3276,1.6448,1
38.3276,1.6415,1
38.3276,1.6391,1
38.3276,1.6407,1
38.3276,1.6383,1
38.3276,1.6367,1
38.3277,1.6375,1
38.3277,1.6383,1
38.3841,1.6423,1
38.3842,1.6488,1
38.3842,1.6512,1
38.3842,1.6577,1
38.3842,1.6609,1
38.3842,1.6633,1
38.3842,1.6585,1
38.3843,1.6577,1
38.3843,1.6544,1
38.3843,1.6512,1
38.3843,1.6456,1
38.3843,1.6391,1
38.3843,1.6391,1
38.3844,1.6335,1
38.3844,1.6335,1
38.3844,1.6327,1
38.3844,1.6367,1
38.3844,1.6391,1
38.3844,1.6432,1
38.3844,1.6464,1
38.3845,1.6512,1
38.3845,1.6552,1
38.3845,1.6544,1
38.3845,1.6560,1
38.3845,1.6568,1
38.3846,1.6577,1
38.3846,1.6609,1
38.3846,1.6609,1
38.3846,1.6585,1
38.3846,1.6568,1
38.3846,1.6504,1
38.3846,1.6480,1
38.3847,1.6448,1
38.3847,1.6415,1
38.3847,1.6391,1
38.3847,1.6359,1
38.3847,1.6327,1
38.3847,1.6327,1
38.3848,1.6351,1
38.3848,1.6383,1
38.3848,1.6472,1
38.3848,1.6327,1
38.3848,1.6391,1
38.3848,1.6456,1
38.3848,1.6448,1
38.3849,1.6496,1
38.3849,1.6544,1
38.3849,1.6528,1
38.3849,1.6488,1
38.3849,1.6440,1
38.3849,1.6383,1
38.3850,1.6520,1
38.3850,1.6448,1
38.3850,1.6391,1
38.3850,1.6399,1
38.3850,1.6367,1
38.3851,1.6327,1
38.3851,1.6327,1
38.3851,1.6496,1
38.3851,1.6504,1
38.3851,1.6472,1
38.3851,1.6496,1
38.3851,1.6528,1
38.3852,1.6528,1
38.3852,1.6568,1
38.3852,1.6568,1
38.3852,1.6609,1
38.3852,1.6609,1
38.3852,1.6456,1
38.3853,1.6472,1
38.3853,1.6520,1
38.3853,1.6504,1
38.3853,1.6480,1
38.3853,1.6456,1
38.3853,1.6520,1
38.3853,1.6512,1
38.3854,1.6585,1
38.3854,1.6577,1
38.3854,1.6585,1
38.3854,1.6617,1
38.3854,1.6593,1
38.3854,1.6649,1
38.3855,1.6705,1
38.3855,1.6762,1
38.3855,1.6673,1
38.3855,1.6714,1
38.3855,1.6617,1
38.3856,1.6617,1
38.3856,1.6593,1
38.3856,1.6552,1
38.3856,1.6552,1
38.3856,1.6560,1
38.3856,1.6512,1
38.3856,1.6432,1
38.3857,1.6552,1
38.3857,1.6520,1
38.3857,1.6432,1
38.3857,1.6456,1
38.3857,1.6504,1
38.3857,1.6528,1
38.3858,1.6560,1
38.3858,1.6552,1
38.3858,1.6593,1
38.3858,1.6665,1
38.3858,1.6552,1
38.3858,1.6560,1
38.3858,1.6689,1
38.3859,1.6714,1
38.3859,1.6681,1
38.3859,1.6649,1
38.3859,1.6617,1
38.3859,1.6560,1
38.3859,1.6512,1
38.3860,1.6464,1
38.3860,1.6448,1
38.3860,1.6432,1
38.4432,1.6391,1
38.4432,1.6359,1
38.4433,1.6383,1
38.4433,1.6440,1
38.4433,1.6472,1
38.4433,1.6544,1
38.4433,1.6609,1
38.4433,1.6649,1
38.4434,1.6665,1
38.4434,1.6697,1
38.4434,1.6689,1
38.4434,1.6673,1
38.4434,1.6577,1
38.4434,1.6528,1
38.4435,1.6480,1
38.4435,1.6432,1
38.4435,1.6367,1
38.4435,1.6407,1
38.4435,1.6391,1
38.4436,1.6367,1
38.4436,1.6399,1
38.4436,1.6407,1
38.4436,1.6464,1
38.4436,1.6488,1
38.4436,1.6552,1
38.4437,1.6560,1
38.4437,1.6585,1
38.4437,1.6673,1
38.4437,1.6681,1
38.4437,1.6673,1
38.4437,1.6641,1
38.4437,1.6641,1
38.4438,1.6585,1
38.4438,1.6577,1
38.4438,1.6504,1
38.4438,1.6488,1
38.4438,1.6464,1
38.4438,1.6311,1
38.4439,1.6327,1
38.4439,1.6319,1
38.4439,1.6351,1
38.4439,1.6367,1
38.4439,1.6440,1
38.4439,1.6480,1
38.4440,1.6536,1
38.4440,1.6601,1
38.4440,1.6657,1
38.4440,1.6705,1
38.4440,1.6657,1
38.4441,1.6681,1
38.4441,1.6673,1
38.4441,1.6649,1
38.4441,1.6609,1
38.4441,1.6552,1
38.4442,1.6528,1
38.4442,1.6464,1
38.4442,1.6415,1
38.4442,1.6359,1
38.4442,1.6399,1
38.4442,1.6391,1
38.4443,1.6407,1
38.4443,1.6423,1
38.4443,1.6448,1
38.4443,1.6480,1
38.4443,1.6480,1
38.4443,1.6440,1
38.4443,1.6633,1
38.4444,1.6641,1
38.4444,1.6625,1
38.4444,1.6601,1
38.4444,1.6585,1
38.4444,1.6577,1
38.4444,1.6568,1
38.4445,1.6560,1
38.4445,1.6544,1
38.4445,1.6568,1
38.4445,1.6327,1
38.4445,1.6319,1
38.4446,1.6319,1
38.4446,1.6335,1
38.4446,1.6359,1
38.4446,1.6367,1
38.4446,1.6391,1
38.4446,1.6423,1
38.4446,1.6472,1
38.4447,1.6544,1
38.4447,1.6641,1
38.4447,1.6681,1
38.4447,1.6705,1
38.4447,1.6705,1
38.4447,1.6689,1
38.4448,1.6665,1
38.4448,1.6625,1
38.4448,1.6560,1
38.4448,1.6504,1
38.4448,1.6440,1
38.4448,1.6391,1
38.4448,1.6359,1
38.4449,1.6367,1
38.4449,1.6367,1
38.4449,1.6375,1
38.4449,1.6399,1
38.4449,1.6432,1
38.4449,1.6472,1
38.4450,1.6512,1
38.4450,1.6544,1
38.4450,1.6544,1
38.4450,1.6577,1
38.4450,1.6577,1
38.4451,1.6560,1
38.4451,1.6577,1
38.4451,1.6577,1
38.4451,1.6560,1
38.4451,1.6504,1
38.4451,1.6480,1
38.4451,1.6464,1
38.4452,1.6448,1
38.4452,1.6407,1
38.4452,1.6367,1
38.5045,1.6391,1
38.5045,1.6351,1
38.5045,1.6359,1
38.5045,1.6351,1
38.5045,1.6423,1
38.5046,1.6464,1
38.5046,1.6512,1
38.5046,1.6577,1
38.5046,1.6609,1
38.5046,1.6641,1
38.5046,1.6657,1
38.5046,1.6625,1
38.5047,1.6601,1
38.5047,1.6585,1
38.5047,1.6536,1
38.5047,1.6480,1
38.5047,1.6432,1
38.5047,1.6367,1
38.5048,1.6399,1
38.5048,1.6367,1
38.5048,1.6359,1
38.5048,1.6399,1
38.5048,1.6415,1
38.5048,1.6456,1
38.5049,1.6488,1
38.5049,1.6552,1
38.5049,1.6681,1
38.5049,1.6697,1
38.5049,1.6657,1
38.5049,1.6673,1
38.5050,1.6673,1
38.5050,1.6673,1
38.5050,1.6665,1
38.5050,1.6649,1
38.5050,1.6641,1
38.5050,1.6593,1
38.5051,1.6697,1
38.5051,1.6665,1
38.5051,1.6617,1
38.5051,1.6593,1
38.5051,1.6568,1
38.5051,1.6552,1
38.5051,1.6560,1
38.5052,1.6577,1
38.5052,1.6609,1
38.5052,1.6665,1
38.5052,1.6496,1
38.5052,1.6577,1
38.5052,1.6641,1
38.5053,1.6681,1
38.5053,1.6738,1
38.5053,1.6762,1
38.5053,1.6794,1
38.5053,1.6762,1
38.5053,1.6714,1
38.5053,1.6641,1
38.5054,1.6577,1
38.5054,1.6528,1
38.5054,1.6496,1
38.5054,1.6472,1
38.5054,1.6464,1
38.5054,1.6464,1
38.5055,1.6432,1
38.5055,1.6456,1
38.5055,1.6480,1
38.5055,1.6512,1
38.5056,1.6544,1
38.5056,1.6544,1
38.5056,1.6552,1
38.5056,1.6568,1
38.5056,1.6568,1
38.5056,1.6560,1
38.5056,1.6568,1
38.5057,1.6552,1
38.5057,1.6528,1
38.5057,1.6504,1
38.5057,1.6504,1
38.5057,1.6480,1
38.5057,1.6456,1
38.5058,1.6415,1
38.5058,1.6375,1
38.5058,1.6343,1
38.5058,1.6327,1
38.5058,1.6351,1
38.5058,1.6375,1
38.5058,1.6407,1
38.5059,1.6423,1
38.5059,1.6488,1
38.5059,1.6536,1
38.5059,1.6577,1
38.5059,1.6617,1
38.5059,1.6625,1
38.5060,1.6625,1
38.5060,1.6585,1
38.5060,1.6544,1
38.5060,1.6504,1
38.5060,1.6448,1
38.5061,1.6399,1
38.5061,1.6375,1
38.5061,1.6351,1
38.5061,1.6327,1
38.5061,1.6351,1
38.5061,1.6367,1
38.5062,1.6399,1
38.5062,1.6391,1
38.5062,1.6440,1
38.5062,1.6472,1
38.5062,1.6496,1
38.5062,1.6536,1
38.5062,1.6560,1
38.5063,1.6577,1
38.5063,1.6577,1
38.5063,1.6568,1
38.5063,1.6568,1
38.5063,1.6585,1
38.5063,1.6560,1
38.5064,1.6512,1
38.5064,1.6464,1
38.5064,1.6407,1
38.5064,1.6359,1
38.5064,1.6327,1
38.5064,1.6303,1
38.5644,1.6262,1
38.5644,1.6262,1
38.5644,1.6303,1
38.5644,1.6343,1
38.5644,1.6399,1
38.5644,1.6472,1
38.5645,1.6528,1
38.5645,1.6577,1
38.5645,1.6609,1
38.5645,1.6633,1
38.5645,1.6657,1
38.5646,1.6617,1
38.5646,1.6568,1
38.5646,1.6520,1
38.5646,1.6472,1
38.5646,1.6415,1
38.5646,1.6383,1
38.5646,1.6359,1
38.5647,1.6343,1
38.5647,1.6343,1
38.5647,1.6359,1
38.5647,1.6391,1
38.5647,1.6415,1
38.5647,1.6448,1
38.5648,1.6480,1
38.5648,1.6528,1
38.5648,1.6552,1
38.5648,1.6560,1
38.5648,1.6568,1
38.5648,1.6577,1
38.5648,1.6577,1
38.5649,1.6577,1
38.5649,1.6568,1
38.5649,1.6544,1
38.5649,1.6512,1
38.5649,1.6472,1
38.5649,1.6432,1
38.5650,1.6399,1
38.5650,1.6383,1
38.5650,1.6359,1
38.5650,1.6359,1
38.5650,1.6375,1
38.5650,1.6399,1
38.5651,1.6456,1
38.5651,1.6504,1
38.5651,1.6552,1
38.5651,1.6601,1
38.5651,1.6641,1
38.5651,1.6657,1
38.5651,1.6673,1
38.5652,1.6657,1
38.5652,1.6617,1
38.5652,1.6577,1
38.5652,1.6496,1
38.5652,1.6464,1
38.5652,1.6415,1
38.5653,1.6391,1
38.5653,1.6383,1
38.5653,1.6375,1
38.5653,1.6399,1
38.5653,1.6407,1
38.5653,1.6440,1
38.5653,1.6472,1
38.5654,1.6512,1
38.5654,1.6536,1
38.5654,1.6552,1
38.5654,1.6568,1
38.5654,1.6593,1
38.5654,1.6601,1
38.5655,1.6585,1
38.5655,1.6577,1
38.5655,1.6568,1
38.5655,1.6560,1
38.5655,1.6536,1
38.5656,1.6504,1
38.5656,1.6480,1
38.5656,1.6448,1
38.5656,1.6391,1
38.5656,1.6367,1
38.5656,1.6359,1
38.5657,1.6367,1
38.5657,1.6383,1
38.5657,1.6391,1
38.5657,1.6432,1
38.5657,1.6480,1
38.5657,1.6528,1
38.5657,1.6568,1
38.5658,1.6633,1
38.5658,1.6649,1
38.5658,1.6649,1
38.5658,1.6625,1
38.5658,1.6593,1
38.5658,1.6560,1
38.5659,1.6512,1
38.5659,1.6456,1
38.5659,1.6415,1
38.5659,1.6391,1
38.5659,1.6351,1
38.5659,1.6359,1
38.5660,1.6359,1
38.5660,1.6399,1
38.5660,1.6432,1
38.5660,1.6472,1
38.5660,1.6504,1
38.5660,1.6544,1
38.5660,1.6568,1
38.5661,1.6593,1
38.5661,1.6609,1
38.5661,1.6617,1
38.5661,1.6617,1
38.5661,1.6617,1
38.5661,1.6609,1
38.5662,1.6593,1
38.5662,1.6568,1
38.5662,1.6544,1
38.5662,1.6512,1
38.5662,1.6480,1
38.5662,1.6448,1
38.5663,1.6423,1
38.5663,1.6415,1
38.6249,1.6407,1
38.6249,1.6423,1
38.6249,1.6440,1
38.6250,1.6472,1
38.6250,1.6512,1
38.6250,1.6568,1
38.6250,1.6617,1
38.6250,1.6649,1
38.6250,1.6665,1
38.6251,1.6665,1
38.6251,1.6665,1
38.6251,1.6617,1
38.6251,1.6577,1
38.6251,1.6528,1
38.6251,1.6472,1
38.6252,1.6423,1
38.6252,1.6383,1
38.6252,1.6367,1
38.6252,1.6375,1
38.6252,1.6375,1
38.6252,1.6391,1
38.6253,1.6432,1
38.6253,1.6464,1
38.6253,1.6504,1
38.6253,1.6536,1
38.6253,1.6560,1
38.6253,1.6585,1
38.6253,1.6593,1
38.6254,1.6593,1
38.6254,1.6601,1
38.6254,1.6593,1
38.6254,1.6585,1
38.6254,1.6560,1
38.6254,1.6536,1
38.6255,1.6512,1
38.6255,1.6480,1
38.6255,1.6456,1
38.6255,1.6423,1
38.6255,1.6399,1
38.6256,1.6383,1
38.6256,1.6375,1
38.6256,1.6383,1
38.6256,1.6415,1
38.6256,1.6464,1
38.6256,1.6504,1
38.6256,1.6560,1
38.6257,1.6593,1
38.6257,1.6633,1
38.6257,1.6657,1
38.6257,1.6673,1
38.6257,1.6657,1
38.6257,1.6625,1
38.6258,1.6577,1
38.6258,1.6520,1
38.6258,1.6423,1
38.6258,1.6375,1
38.6258,1.6335,1
38.6258,1.6327,1
38.6258,1.6327,1
38.6259,1.6327,1
38.6259,1.6359,1
38.6259,1.6399,1
38.6259,1.6440,1
38.6259,1.6472,1
38.6259,1.6560,1
38.6259,1.6585,1
38.6260,1.6609,1
38.6260,1.6609,1
38.6260,1.6609,1
38.6260,1.6609,1
38.6260,1.6601,1
38.6260,1.6593,1
38.6261,1.6568,1
38.6261,1.6544,1
38.6261,1.6496,1
38.6261,1.6464,1
38.6261,1.6432,1
38.6261,1.6391,1
38.6261,1.6359,1
38.6262,1.6335,1
38.6262,1.6327,1
38.6262,1.6343,1
38.6262,1.6375,1
38.6262,1.6415,1
38.6262,1.6472,1
38.6263,1.6528,1
38.6263,1.6568,1
38.6263,1.6617,1
38.6263,1.6657,1
38.6263,1.6657,1
38.6263,1.6641,1
38.6263,1.6601,1
38.6264,1.6552,1
38.6264,1.6520,1
38.6264,1.6464,1
38.6264,1.6415,1
38.6264,1.6391,1
38.6264,1.6359,1
38.6265,1.6343,1
38.6265,1.6359,1
38.6265,1.6375,1
38.6265,1.6407,1
38.6265,1.6448,1
38.6265,1.6464,1
38.6266,1.6504,1
38.6266,1.6536,1
38.6266,1.6544,1
38.6266,1.6560,1
38.6266,1.6577,1
38.6266,1.6577,1
38.6267,1.6585,1
38.6267,1.6577,1
38.6267,1.6552,1
38.6267,1.6528,1
38.6267,1.6504,1
38.6267,1.6472,1
38.6267,1.6456,1
38.6268,1.6423,1
38.6268,1.6391,1
38.6268,1.6254,1
38.6268,1.6254,1
38.6840,1.6270,1
38.6840,1.6319,1
38.6841,1.6359,1
38.6841,1.6407,1
38.6841,1.6464,1
38.6841,1.6504,1
38.6841,1.6544,1
38.6841,1.6568,1
38.6841,1.6689,1
38.6842,1.6673,1
38.6842,1.6625,1
38.6842,1.6560,1
38.6842,1.6496,1
38.6842,1.6432,1
38.6842,1.6375,1
38.6843,1.6335,1
38.6843,1.6311,1
38.6843,1.6303,1
38.6843,1.6375,1
38.6843,1.6383,1
38.6843,1.6415,1
38.6843,1.6456,1
38.6844,1.6488,1
38.6844,1.6520,1
38.6844,1.6544,1
38.6844,1.6585,1
38.6845,1.6601,1
38.6845,1.6609,1
38.6845,1.6641,1
38.6845,1.6697,1
38.6845,1.6681,1
38.6845,1.6657,1
38.6846,1.6633,1
38.6846,1.6617,1
38.6846,1.6585,1
38.6846,1.6536,1
38.6846,1.6528,1
38.6846,1.6512,1
38.6846,1.6399,1
38.6847,1.6335,1
38.6847,1.6367,1
38.6847,1.6415,1
38.6847,1.6472,1
38.6847,1.6528,1
38.6847,1.6593,1
38.6848,1.6568,1
38.6848,1.6625,1
38.6848,1.6641,1
38.6848,1.6657,1
38.6848,1.6577,1
38.6848,1.6560,1
38.6848,1.6512,1
38.6849,1.6464,1
38.6849,1.6415,1
38.6849,1.6367,1
38.6849,1.6399,1
38.6849,1.6343,1
38.6849,1.6343,1
38.6850,1.6335,1
38.6850,1.6407,1
38.6850,1.6423,1
38.6850,1.6440,1
38.6850,1.6464,1
38.6850,1.6335,1
38.6851,1.6407,1
38.6851,1.6375,1
38.6851,1.6391,1
38.6851,1.6399,1
38.6851,1.6399,1
38.6851,1.6399,1
38.6851,1.6432,1
38.6852,1.6407,1
38.6852,1.6375,1
38.6852,1.6488,1
38.6852,1.6391,1
38.6852,1.6399,1
38.6852,1.6383,1
38.6853,1.6343,1
38.6853,1.6327,1
38.6853,1.6319,1
38.6853,1.6303,1
38.6853,1.6335,1
38.6853,1.6383,1
38.6853,1.6415,1
38.6854,1.6480,1
38.6854,1.6536,1
38.6854,1.6552,1
38.6854,1.6593,1
38.6854,1.6617,1
38.6854,1.6617,1
38.6855,1.6585,1
38.6855,1.6552,1
38.6855,1.6504,1
38.6855,1.6472,1
38.6855,1.6432,1
38.6856,1.6399,1
38.6856,1.6391,1
38.6856,1.6383,1
38.6856,1.6391,1
38.6856,1.6407,1
38.6856,1.6440,1
38.6856,1.6472,1
38.6857,1.6496,1
38.6857,1.6528,1
38.6857,1.6593,1
38.6857,1.6609,1
38.6857,1.6641,1
38.6857,1.6649,1
38.6858,1.6673,1
38.6858,1.6665,1
38.6858,1.6649,1
38.6858,1.6625,1
38.6858,1.6633,1
38.6858,1.6585,1
38.6858,1.6520,1
38.6859,1.6488,1
38.6859,1.6488,1
38.6859,1.6456,1
38.7433,1.6407,1
38.7434,1.6423,1
38.7434,1.6407,1
38.7434,1.6472,1
38.7434,1.6512,1
38.7434,1.6577,1
38.7434,1.6625,1
38.7434,1.6673,1
38.7435,1.6552,1
38.7435,1.6601,1
38.7435,1.6657,1
38.7435,1.6649,1
38.7435,1.6649,1
38.7436,1.6585,1
38.7436,1.6536,1
38.7436,1.6488,1
38.7436,1.6440,1
38.7436,1.6407,1
38.7436,1.6464,1
38.7436,1.6448,1
38.7437,1.6440,1
38.7437,1.6448,1
38.7437,1.6464,1
38.7437,1.6480,1
38.7437,1.6504,1
38.7437,1.6536,1
38.7438,1.6593,1
38.7438,1.6609,1
38.7438,1.6649,1
38.7438,1.6649,1
38.7438,1.6625,1
38.7438,1.6617,1
38.7438,1.6617,1
38.7439,1.6601,1
38.7439,1.6560,1
38.7439,1.6528,1
38.7439,1.6432,1
38.7439,1.6399,1
38.7439,1.6383,1
38.7440,1.6367,1
38.7440,1.6367,1
38.7440,1.6359,1
38.7440,1.6375,1
38.7440,1.6407,1
38.7440,1.6440,1
38.7441,1.6496,1
38.7441,1.6593,1
38.7441,1.6641,1
38.7441,1.6649,1
38.7441,1.6665,1
38.7441,1.6625,1
38.7441,1.6625,1
38.7442,1.6601,1
38.7442,1.6552,1
38.7442,1.6536,1
38.7442,1.6488,1
38.7442,1.6432,1
38.7442,1.6391,1
38.7443,1.6432,1
38.7443,1.6415,1
38.7443,1.6464,1
38.7443,1.6464,1
38.7443,1.6488,1
38.7443,1.6520,1
38.7443,1.6504,1
38.7444,1.6536,1
38.7444,1.6504,1
38.7444,1.6536,1
38.7444,1.6496,1
38.7444,1.6520,1
38.7444,1.6544,1
38.7445,1.6552,1
38.7445,1.6593,1
38.7445,1.6568,1
38.7445,1.6568,1
38.7445,1.6536,1
38.7445,1.6585,1
38.7446,1.6544,1
38.7446,1.6472,1
38.7446,1.6440,1
38.7446,1.6407,1
38.7446,1.6367,1
38.7446,1.6327,1
38.7446,1.6359,1
38.7447,1.6359,1
38.7447,1.6415,1
38.7447,1.6456,1
38.7447,1.6504,1
38.7447,1.6617,1
38.7447,1.6649,1
38.7448,1.6601,1
38.7448,1.6617,1
38.7448,1.6577,1
38.7448,1.6528,1
38.7448,1.6504,1
38.7448,1.6456,1
38.7448,1.6399,1
38.7449,1.6359,1
38.7449,1.6246,1
38.7449,1.6246,1
38.7449,1.6278,1
38.7449,1.6311,1
38.7449,1.6359,1
38.7450,1.6407,1
38.7450,1.6472,1
38.7450,1.6488,1
38.7450,1.6536,1
38.7450,1.6544,1
38.7450,1.6552,1
38.7451,1.6552,1
38.7451,1.6560,1
38.7451,1.6544,1
38.7451,1.6504,1
38.7451,1.6472,1
38.7451,1.6464,1
38.7451,1.6432,1
38.7452,1.6383,1
38.7452,1.6367,1
38.7452,1.6480,1
38.8028,1.6440,1
38.8028,1.6448,1
38.8028,1.6440,1
38.8028,1.6448,1
38.8029,1.6472,1
38.8029,1.6480,1
38.8029,1.6528,1
38.8029,1.6585,1
38.8029,1.6601,1
38.8029,1.6552,1
38.8029,1.6601,1
38.8030,1.6625,1
38.8030,1.6625,1
38.8030,1.6585,1
38.8030,1.6544,1
38.8030,1.6520,1
38.8030,1.6480,1
38.8030,1.6423,1
38.8031,1.6423,1
38.8031,1.6407,1
38.8031,1.6375,1
38.8031,1.6367,1
38.8031,1.6391,1
38.8032,1.6415,1
38.8032,1.6448,1
38.8032,1.6456,1
38.8032,1.6472,1
38.8032,1.6504,1
38.8032,1.6520,1
38.8032,1.6536,1
38.8033,1.6544,1
38.8033,1.6552,1
38.8033,1.6544,1
38.8033,1.6568,1
38.8033,1.6512,1
38.8033,1.6480,1
38.8033,1.6464,1
38.8034,1.6415,1
38.8034,1.6375,1
38.8034,1.6311,1
38.8034,1.6286,1
38.8034,1.6262,1
38.8034,1.6254,1
38.8035,1.6254,1
38.8035,1.6278,1
38.8035,1.6335,1
38.8035,1.6391,1
38.8035,1.6432,1
38.8035,1.6480,1
38.8036,1.6552,1
38.8036,1.6585,1
38.8036,1.6601,1
38.8036,1.6585,1
38.8036,1.6568,1
38.8036,1.6560,1
38.8037,1.6504,1
38.8037,1.6440,1
38.8037,1.6415,1
38.8037,1.6375,1
38.8037,1.6359,1
38.8037,1.6343,1
38.8037,1.6351,1
38.8038,1.6375,1
38.8038,1.6399,1
38.8038,1.6423,1
38.8038,1.6448,1
38.8038,1.6496,1
38.8038,1.6504,1
38.8038,1.6633,1
38.8039,1.6633,1
38.8039,1.6633,1
38.8039,1.6633,1
38.8039,1.6810,1
38.8039,1.6786,1
38.8039,1.6770,1
38.8040,1.6730,1
38.8040,1.6689,1
38.8040,1.6665,1
38.8040,1.6520,1
38.8040,1.6504,1
38.8041,1.6480,1
38.8041,1.6464,1
38.8041,1.6286,1
38.8041,1.6327,1
38.8041,1.6367,1
38.8041,1.6432,1
38.8041,1.6504,1
38.8042,1.6577,1
38.8042,1.6649,1
38.8042,1.6697,1
38.8042,1.6738,1
38.8042,1.6738,1
38.8042,1.6754,1
38.8042,1.6722,1
38.8043,1.6673,1
38.8043,1.6625,1
38.8043,1.6560,1
38.8043,1.6504,1
38.8043,1.6464,1
38.8043,1.6432,1
38.8044,1.6415,1
38.8044,1.6423,1
38.8044,1.6415,1
38.8044,1.6432,1
38.8044,1.6520,1
38.8044,1.6544,1
38.8045,1.6577,1
38.8045,1.6593,1
38.8045,1.6617,1
38.8045,1.6625,1
38.8045,1.6625,1
38.8046,1.6657,1
38.8046,1.6625,1
38.8046,1.6617,1
38.8046,1.6544,1
38.8046,1.6536,1
38.8046,1.6512,1
38.8046,1.6488,1
38.8047,1.6448,1
38.8632,1.6423,1
38.8633,1.6415,1
38.8633,1.6383,1
38.8633,1.6407,1
38.8633,1.6383,1
38.8633,1.6423,1
38.8633,1.6480,1
38.8634,1.6528,1
38.8634,1.6601,1
38.8634,1.6649,1
38.8634,1.6705,1
38.8634,1.6722,1
38.8634,1.6730,1
38.8634,1.6705,1
38.8635,1.6722,1
38.8635,1.6657,1
38.8635,1.6593,1
38.8635,1.6480,1
38.8635,1.6415,1
38.8635,1.6375,1
38.8636,1.6351,1
38.8636,1.6335,1
38.8636,1.6343,1
38.8636,1.6335,1
38.8636,1.6367,1
38.8636,1.6407,1
38.8636,1.6448,1
38.8637,1.6568,1
38.8637,1.6577,1
38.8637,1.6585,1
38.8637,1.6601,1
38.8637,1.6617,1
38.8637,1.6609,1
38.8638,1.6641,1
38.8638,1.6625,1
38.8638,1.6601,1
38.8638,1.6577,1
38.8638,1.6512,1
38.8638,1.6480,1
38.8639,1.6456,1
38.8639,1.6415,1
38.8639,1.6359,1
38.8639,1.6335,1
38.8639,1.6319,1
38.8639,1.6343,1
38.8639,1.6367,1
38.8640,1.6423,1
38.8640,1.6472,1
38.8640,1.6528,1
38.8640,1.6585,1
38.8640,1.6633,1
38.8640,1.6689,1
38.8641,1.6705,1
38.8641,1.6697,1
38.8641,1.6665,1
38.8641,1.6609,1
38.8641,1.6552,1
38.8641,1.6488,1
38.8641,1.6440,1
38.8642,1.6383,1
38.8642,1.6351,1
38.8642,1.6343,1
38.8642,1.6351,1
38.8642,1.6367,1
38.8642,1.6391,1
38.8643,1.6423,1
38.8643,1.6464,1
38.8643,1.6504,1
38.8643,1.6536,1
38.8643,1.6568,1
38.8643,1.6593,1
38.8643,1.6601,1
38.8644,1.6593,1
38.8644,1.6593,1
38.8644,1.6585,1
38.8644,1.6577,1
38.8644,1.6552,1
38.8644,1.6520,1
38.8645,1.6480,1
38.8645,1.6432,1
38.8645,1.6399,1
38.8645,1.6375,1
38.8645,1.6359,1
38.8645,1.6359,1
38.8646,1.6367,1
38.8646,1.6399,1
38.8646,1.6440,1
38.8646,1.6488,1
38.8646,1.6552,1
38.8646,1.6609,1
38.8646,1.6649,1
38.8647,1.6665,1
38.8647,1.6681,1
38.8647,1.6673,1
38.8647,1.6641,1
38.8647,1.6593,1
38.8647,1.6544,1
38.8648,1.6496,1
38.8648,1.6440,1
38.8648,1.6399,1
38.8648,1.6359,1
38.8648,1.6359,1
38.8648,1.6359,1
38.8648,1.6367,1
38.8649,1.6399,1
38.8649,1.6440,1
38.8649,1.6472,1
38.8649,1.6512,1
38.8649,1.6536,1
38.8649,1.6552,1
38.8650,1.6593,1
38.8650,1.6601,1
38.8650,1.6617,1
38.8650,1.6617,1
38.8650,1.6617,1
38.8650,1.6585,1
38.8650,1.6552,1
38.8651,1.6512,1
38.8651,1.6480,1
38.8651,1.6448,1
38.8651,1.6407,1
38.9254,1.6367,1
38.9254,1.6335,1
38.9254,1.6335,1
38.9255,1.6351,1
38.9255,1.6375,1
38.9255,1.6423,1
38.9255,1.6480,1
38.9255,1.6544,1
38.9255,1.6585,1
38.9256,1.6633,1
38.9256,1.6665,1
38.9256,1.6681,1
38.9256,1.6665,1
38.9256,1.6641,1
38.9256,1.6601,1
38.9257,1.6544,1
38.9257,1.6488,1
38.9257,1.6440,1
38.9257,1.6407,1
38.9257,1.6383,1
38.9257,1.6383,1
38.9257,1.6391,1
38.9258,1.6407,1
38.9258,1.6432,1
38.9258,1.6464,1
38.9258,1.6512,1
38.9258,1.6544,1
38.9258,1.6577,1
38.9259,1.6593,1
38.9259,1.6609,1
38.9259,1.6625,1
38.9259,1.6633,1
38.9259,1.6633,1
38.9259,1.6633,1
38.9260,1.6617,1
38.9260,1.6593,1
38.9260,1.6552,1
38.9260,1.6520,1
38.9260,1.6472,1
38.9260,1.6440,1
38.9261,1.6399,1
38.9261,1.6375,1
38.9261,1.6367,1
38.9261,1.6367,1
38.9261,1.6383,1
38.9261,1.6423,1
38.9261,1.6472,1
38.9262,1.6512,1
38.9262,1.6577,1
38.9262,1.6609,1
38.9262,1.6641,1
38.9262,1.6657,1
38.9262,1.6657,1
38.9263,1.6625,1
38.9263,1.6585,1
38.9263,1.6520,1
38.9263,1.6488,1
38.9263,1.6440,1
38.9263,1.6399,1
38.9263,1.6375,1
38.9264,1.6367,1
38.9264,1.6367,1
38.9264,1.6375,1
38.9264,1.6399,1
38.9264,1.6432,1
38.9264,1.6480,1
38.9265,1.6504,1
38.9265,1.6536,1
38.9265,1.6560,1
38.9265,1.6577,1
38.9265,1.6593,1
38.9265,1.6593,1
38.9266,1.6593,1
38.9266,1.6577,1
38.9266,1.6568,1
38.9266,1.6528,1
38.9266,1.6504,1
38.9266,1.6472,1
38.9266,1.6440,1
38.9267,1.6407,1
38.9267,1.6383,1
38.9267,1.6375,1
38.9267,1.6375,1
38.9267,1.6399,1
38.9267,1.6423,1
38.9268,1.6480,1
38.9268,1.6536,1
38.9268,1.6601,1
38.9268,1.6641,1
38.9268,1.6681,1
38.9268,1.6705,1
38.9268,1.6714,1
38.9269,1.6697,1
38.9269,1.6665,1
38.9269,1.6617,1
38.9269,1.6552,1
38.9269,1.6496,1
38.9269,1.6440,1
38.9270,1.6399,1
38.9270,1.6375,1
38.9270,1.6359,1
38.9270,1.6367,1
38.9270,1.6399,1
38.9270,1.6423,1
38.9271,1.6464,1
38.9271,1.6504,1
38.9271,1.6552,1
38.9271,1.6585,1
38.9271,1.6617,1
38.9271,1.6633,1
38.9272,1.6649,1
38.9272,1.6657,1
38.9272,1.6649,1
38.9272,1.6633,1
38.9272,1.6625,1
38.9272,1.6601,1
38.9272,1.6560,1
38.9273,1.6504,1
38.9273,1.6464,1
38.9273,1.6432,1
38.9273,1.6399,1
38.9273,1.6375,1
38.9273,1.6367,1
38.9274,1.6367,1
38.9868,1.6383,1
38.9868,1.6415,1
38.9868,1.6464,1
38.9868,1.6520,1
38.9869,1.6560,1
38.9869,1.6609,1
38.9869,1.6633,1
38.9869,1.6657,1
38.9869,1.6641,1
38.9869,1.6617,1
38.9869,1.6577,1
38.9870,1.6536,1
38.9870,1.6480,1
38.9870,1.6440,1
38.9870,1.6407,1
38.9870,1.6375,1
38.9870,1.6367,1
38.9871,1.6367,1
38.9871,1.6383,1
38.9871,1.6407,1
38.9871,1.6448,1
38.9871,1.6480,1
38.9871,1.6520,1
38.9872,1.6552,1
38.9872,1.6577,1
38.9872,1.6633,1
38.9872,1.6633,1
38.9872,1.6633,1
38.9872,1.6641,1
38.9872,1.6633,1
38.9873,1.6617,1
38.9873,1.6585,1
38.9873,1.6560,1
38.9873,1.6520,1
38.9873,1.6480,1
38.9873,1.6472,1
38.9874,1.6432,1
38.9874,1.6407,1
38.9874,1.6391,1
38.9874,1.6399,1
38.9874,1.6415,1
38.9874,1.6456,1
38.9874,1.6496,1
38.9875,1.6560,1
38.9875,1.6649,1
38.9875,1.6633,1
38.9875,1.6681,1
38.9875,1.6697,1
38.9875,1.6705,1
38.9876,1.6689,1
38.9876,1.6649,1
38.9876,1.6641,1
38.9876,1.6593,1
38.9876,1.6520,1
38.9876,1.6448,1
38.9876,1.6415,1
38.9877,1.6407,1
38.9877,1.6415,1
38.9877,1.6423,1
38.9877,1.6448,1
38.9877,1.6488,1
38.9877,1.6496,1
38.9878,1.6512,1
38.9878,1.6577,1
38.9878,1.6609,1
38.9878,1.6625,1
38.9878,1.6633,1
38.9878,1.6641,1
38.9878,1.6641,1
38.9879,1.6633,1
38.9879,1.6633,1
38.9879,1.6601,1
38.9879,1.6577,1
38.9879,1.6536,1
38.9879,1.6496,1
38.9880,1.6456,1
38.9880,1.6432,1
38.9880,1.6407,1
38.9880,1.6399,1
38.9880,1.6391,1
38.9880,1.6407,1
38.9881,1.6432,1
38.9881,1.6488,1
38.9881,1.6536,1
38.9881,1.6585,1
38.9881,1.6625,1
38.9881,1.6649,1
38.9881,1.6697,1
38.9882,1.6673,1
38.9882,1.6641,1
38.9882,1.6617,1
38.9882,1.6568,1
38.9882,1.6528,1
38.9882,1.6472,1
38.9883,1.6423,1
38.9883,1.6383,1
38.9883,1.6383,1
38.9883,1.6327,1
38.9883,1.6359,1
38.9883,1.6383,1
38.9883,1.6415,1
38.9884,1.6448,1
38.9884,1.6464,1
38.9884,1.6488,1
38.9884,1.6520,1
38.9884,1.6544,1
38.9884,1.6520,1
38.9885,1.6552,1
38.9885,1.6617,1
38.9885,1.6601,1
38.9885,1.6577,1
38.9885,1.6544,1
38.9885,1.6496,1
38.9886,1.6456,1
38.9886,1.6448,1
38.9886,1.6407,1
38.9886,1.6407,1
38.9886,1.6359,1
38.9886,1.6278,1
38.9886,1.6286,1
38.9887,1.6303,1
38.9887,1.6351,1
38.9887,1.6375,1
39.0479,1.6440,1
39.0479,1.6456,1
39.0480,1.6560,1
39.0480,1.6585,1
39.0480,1.6609,1
39.0480,1.6601,1
39.0480,1.6568,1
39.0480,1.6520,1
39.0481,1.6464,1
39.0481,1.6448,1
39.0481,1.6383,1
39.0481,1.6343,1
39.0481,1.6262,1
39.0481,1.6254,1
39.0482,1.6262,1
39.0482,1.6270,1
39.0482,1.6311,1
39.0482,1.6351,1
39.0482,1.6399,1
39.0482,1.6440,1
39.0482,1.6456,1
39.0483,1.6488,1
39.0483,1.6504,1
39.0483,1.6520,1
39.0483,1.6552,1
39.0483,1.6560,1
39.0483,1.6552,1
39.0484,1.6528,1
39.0484,1.6480,1
39.0484,1.6448,1
39.0484,1.6432,1
39.0484,1.6391,1
39.0484,1.6359,1
39.0484,1.6319,1
39.0485,1.6327,1
39.0485,1.6254,1
39.0485,1.6286,1
39.0485,1.6327,1
39.0485,1.6375,1
39.0486,1.6423,1
39.0486,1.6480,1
39.0486,1.6536,1
39.0486,1.6601,1
39.0486,1.6633,1
39.0486,1.6577,1
39.0486,1.6641,1
39.0487,1.6601,1
39.0487,1.6544,1
39.0487,1.6270,1
39.0487,1.6238,1
39.0487,1.6214,1
39.0487,1.6190,1
39.0488,1.6158,1
39.0488,1.6158,1
39.0488,1.6190,1
39.0488,1.6214,1
39.0488,1.6230,1
39.0488,1.6270,1
39.0488,1.6544,1
39.0489,1.6544,1
39.0489,1.6568,1
39.0489,1.6568,1
39.0489,1.6552,1
39.0489,1.6536,1
39.0489,1.6512,1
39.0490,1.6496,1
39.0490,1.6472,1
39.0490,1.6432,1
39.0490,1.6456,1
39.0490,1.6391,1
39.0490,1.6456,1
39.0490,1.6407,1
39.0491,1.6375,1
39.0491,1.6335,1
39.0491,1.6367,1
39.0491,1.6367,1
39.0491,1.6375,1
39.0491,1.6415,1
39.0492,1.6528,1
39.0492,1.6593,1
39.0492,1.6536,1
39.0492,1.6625,1
39.0492,1.6681,1
39.0492,1.6730,1
39.0492,1.6714,1
39.0493,1.6722,1
39.0493,1.6746,1
39.0493,1.6714,1
39.0493,1.6536,1
39.0493,1.6528,1
39.0493,1.6456,1
39.0494,1.6407,1
39.0494,1.6407,1
39.0494,1.6407,1
39.0494,1.6375,1
39.0494,1.6399,1
39.0494,1.6391,1
39.0495,1.6440,1
39.0495,1.6480,1
39.0495,1.6512,1
39.0495,1.6560,1
39.0495,1.6577,1
39.0495,1.6593,1
39.0496,1.6593,1
39.0496,1.6641,1
39.0496,1.6617,1
39.0496,1.6601,1
39.0496,1.6568,1
39.0496,1.6520,1
39.0496,1.6464,1
39.0497,1.6415,1
39.0497,1.6367,1
39.0497,1.6327,1
39.0497,1.6270,1
39.0497,1.6270,1
39.0497,1.6262,1
39.0498,1.6254,1
39.0498,1.6270,1
39.0498,1.6335,1
39.0498,1.6383,1
39.0498,1.6456,1
39.0498,1.6512,1
39.1073,1.6560,1
39.1073,1.6601,1
39.1074,1.6593,1
39.1074,1.6601,1
39.1074,1.6568,1
39.1074,1.6577,1
39.1074,1.6496,1
39.1074,1.6456,1
39.1075,1.6423,1
39.1075,1.6383,1
39.1075,1.6351,1
39.1075,1.6359,1
39.1075,1.6359,1
39.1075,1.6375,1
39.1076,1.6399,1
39.1076,1.6407,1
39.1076,1.6432,1
39.1076,1.6480,1
39.1076,1.6496,1
39.1076,1.6520,1
39.1077,1.6488,1
39.1077,1.6496,1
39.1077,1.6512,1
39.1077,1.6520,1
39.1077,1.6673,1
39.1077,1.6641,1
39.1077,1.6617,1
39.1078,1.6560,1
39.1078,1.6488,1
39.1078,1.6456,1
39.1078,1.6423,1
39.1078,1.6375,1
39.1078,1.6359,1
39.1079,1.6343,1
39.1079,1.6149,1
39.1079,1.6190,1
39.1079,1.6286,1
39.1079,1.6343,1
39.1079,1.6448,1
39.1080,1.6504,1
39.1080,1.6609,1
39.1080,1.6649,1
39.1080,1.6641,1
39.1080,1.6633,1
39.1080,1.6633,1
39.1081,1.6577,1
39.1081,1.6456,1
39.1081,1.6399,1
39.1081,1.6359,1
39.1081,1.6311,1
39.1081,1.6278,1
39.1082,1.6286,1
39.1082,1.6286,1
39.1082,1.6303,1
39.1082,1.6359,1
39.1082,1.6399,1
39.1082,1.6496,1
39.1082,1.6520,1
39.1083,1.6432,1
39.1083,1.6464,1
39.1083,1.6488,1
39.1083,1.6496,1
39.1083,1.6496,1
39.1083,1.6504,1
39.1083,1.6488,1
39.1084,1.6488,1
39.1084,1.6472,1
39.1084,1.6448,1
39.1084,1.6504,1
39.1084,1.6456,1
39.1084,1.6415,1
39.1085,1.6375,1
39.1085,1.6359,1
39.1085,1.6077,1
39.1085,1.6109,1
39.1085,1.6133,1
39.1085,1.6174,1
39.1086,1.6230,1
39.1086,1.6295,1
39.1086,1.6359,1
39.1086,1.6399,1
39.1086,1.6432,1
39.1086,1.6448,1
39.1086,1.6714,1
39.1087,1.6657,1
39.1087,1.6601,1
39.1087,1.6536,1
39.1087,1.6464,1
39.1087,1.6399,1
39.1088,1.6343,1
39.1088,1.6319,1
39.1088,1.6295,1
39.1088,1.6295,1
39.1088,1.6311,1
39.1088,1.6335,1
39.1089,1.6367,1
39.1089,1.6399,1
39.1089,1.6448,1
39.1089,1.6480,1
39.1089,1.6512,1
39.1089,1.6536,1
39.1090,1.6552,1
39.1090,1.6568,1
39.1090,1.6568,1
39.1090,1.6617,1
39.1090,1.6601,1
39.1091,1.6585,1
39.1091,1.6552,1
39.1091,1.6528,1
39.1091,1.6504,1
39.1091,1.6496,1
39.1091,1.6472,1
39.1091,1.6440,1
39.1092,1.6407,1
39.1092,1.6375,1
39.1092,1.6375,1
39.1092,1.6423,1
39.1092,1.6472,1
39.1092,1.6512,1
39.1664,1.6552,1
39.1664,1.6577,1
39.1664,1.6601,1
39.1664,1.6633,1
39.1665,1.6657,1
39.1665,1.6617,1
39.1665,1.6601,1
39.1665,1.6536,1
39.1665,1.6472,1
39.1665,1.6415,1
39.1666,1.6367,1
39.1666,1.6343,1
39.1666,1.6327,1
39.1666,1.6311,1
39.1666,1.6319,1
39.1666,1.6351,1
39.1666,1.6391,1
39.1667,1.6432,1
39.1667,1.6464,1
39.1667,1.6512,1
39.1667,1.6536,1
39.1667,1.6544,1
39.1667,1.6560,1
39.1668,1.6568,1
39.1668,1.6560,1
39.1668,1.6552,1
39.1668,1.6536,1
39.1668,1.6520,1
39.1668,1.6496,1
39.1669,1.6448,1
39.1669,1.6432,1
39.1669,1.6383,1
39.1669,1.6367,1
39.1669,1.6343,1
39.1669,1.6343,1
39.1669,1.6359,1
39.1670,1.6383,1
39.1670,1.6423,1
39.1670,1.6480,1
39.1670,1.6536,1
39.1670,1.6585,1
39.1670,1.6649,1
39.1671,1.6633,1
39.1671,1.6649,1
39.1671,1.6649,1
39.1671,1.6625,1
39.1671,1.6585,1
39.1671,1.6536,1
39.1672,1.6480,1
39.1672,1.6432,1
39.1672,1.6375,1
39.1672,1.6351,1
39.1672,1.6383,1
39.1672,1.6383,1
39.1672,1.6383,1
39.1673,1.6407,1
39.1673,1.6432,1
39.1673,1.6472,1
39.1673,1.6496,1
39.1673,1.6536,1
39.1673,1.6552,1
39.1674,1.6568,1
39.1674,1.6568,1
39.1674,1.6568,1
39.1674,1.6568,1
39.1674,1.6568,1
39.1674,1.6552,1
39.1674,1.6528,1
39.1675,1.6496,1
39.1675,1.6464,1
39.1675,1.6440,1
39.1675,1.6407,1
39.1675,1.6391,1
39.1675,1.6359,1
39.1676,1.6351,1
39.1676,1.6359,1
39.1676,1.6383,1
39.1676,1.6415,1
39.1676,1.6472,1
39.1676,1.6528,1
39.1677,1.6577,1
39.1677,1.6625,1
39.1677,1.6641,1
39.1677,1.6665,1
39.1677,1.6665,1
39.1677,1.6625,1
39.1677,1.6585,1
39.1678,1.6528,1
39.1678,1.6488,1
39.1678,1.6440,1
39.1678,1.6399,1
39.1678,1.6367,1
39.1678,1.6351,1
39.1679,1.6351,1
39.1679,1.6359,1
39.1679,1.6407,1
39.1679,1.6440,1
39.1679,1.6480,1
39.1679,1.6488,1
39.1679,1.6512,1
39.1680,1.6536,1
39.1680,1.6560,1
39.1680,1.6585,1
39.1680,1.6601,1
39.1680,1.6601,1
39.1680,1.6593,1
39.1681,1.6585,1
39.1681,1.6560,1
39.1681,1.6544,1
39.1681,1.6504,1
39.1681,1.6472,1
39.1681,1.6440,1
39.1682,1.6407,1
39.1682,1.6367,1
39.1682,1.6359,1
39.1682,1.6359,1
39.1682,1.6391,1
39.1682,1.6432,1
39.2260,1.6480,1
39.2260,1.6536,1
39.2260,1.6585,1
39.2260,1.6625,1
39.2260,1.6657,1
39.2261,1.6681,1
39.2261,1.6673,1
39.2261,1.6649,1
39.2261,1.6601,1
39.2261,1.6536,1
39.2261,1.6480,1
39.2262,1.6440,1
39.2262,1.6399,1
39.2262,1.6383,1
39.2262,1.6367,1
39.2262,1.6367,1
39.2262,1.6391,1
39.2262,1.6423,1
39.2263,1.6472,1
39.2263,1.6512,1
39.2263,1.6520,1
39.2263,1.6552,1
39.2263,1.6560,1
39.2263,1.6560,1
39.2264,1.6593,1
39.2264,1.6593,1
39.2264,1.6585,1
39.2264,1.6577,1
39.2264,1.6560,1
39.2264,1.6544,1
39.2265,1.6520,1
39.2265,1.6488,1
39.2265,1.6472,1
39.2265,1.6440,1
39.2265,1.6399,1
39.2266,1.6375,1
39.2266,1.6367,1
39.2266,1.6359,1
39.2266,1.6375,1
39.2266,1.6415,1
39.2266,1.6456,1
39.2267,1.6496,1
39.2267,1.6552,1
39.2267,1.6609,1
39.2267,1.6641,1
39.2267,1.6665,1
39.2267,1.6673,1
39.2267,1.6649,1
39.2268,1.6609,1
39.2268,1.6560,1
39.2268,1.6520,1
39.2268,1.6480,1
39.2268,1.6440,1
39.2268,1.6407,1
39.2269,1.6391,1
39.2269,1.6383,1
39.2269,1.6383,1
39.2269,1.6423,1
39.2269,1.6456,1
39.2269,1.6488,1
39.2269,1.6520,1
39.2270,1.6528,1
39.2270,1.6552,1
39.2270,1.6577,1
39.2270,1.6593,1
39.2270,1.6609,1
39.2271,1.6609,1
39.2271,1.6609,1
39.2271,1.6593,1
39.2271,1.6577,1
39.2271,1.6552,1
39.2271,1.6528,1
39.2272,1.6496,1
39.2272,1.6456,1
39.2272,1.6423,1
39.2272,1.6399,1
39.2272,1.6383,1
39.2272,1.6383,1
39.2272,1.6399,1
39.2273,1.6432,1
39.2273,1.6480,1
39.2273,1.6520,1
39.2273,1.6560,1
39.2273,1.6609,1
39.2273,1.6633,1
39.2274,1.6649,1
39.2274,1.6641,1
39.2274,1.6609,1
39.2274,1.6552,1
39.2274,1.6504,1
39.2274,1.6448,1
39.2275,1.6407,1
39.2275,1.6359,1
39.2275,1.6335,1
39.2275,1.6335,1
39.2276,1.6335,1
39.2276,1.6359,1
39.2276,1.6383,1
39.2276,1.6440,1
39.2276,1.6472,1
39.2276,1.6504,1
39.2276,1.6552,1
39.2277,1.6585,1
39.2277,1.6593,1
39.2277,1.6593,1
39.2277,1.6593,1
39.2277,1.6577,1
39.2277,1.6568,1
39.2278,1.6552,1
39.2278,1.6544,1
39.2278,1.6520,1
39.2278,1.6472,1
39.2278,1.6448,1
39.2278,1.6415,1
39.2278,1.6391,1
39.2279,1.6375,1
39.2279,1.6383,1
39.2279,1.6407,1
39.2279,1.6423,1
39.2862,1.6448,1
39.2863,1.6496,1
39.2863,1.6544,1
39.2863,1.6593,1
39.2863,1.6641,1
39.2863,1.6665,1
39.2863,1.6681,1
39.2864,1.6673,1
39.2864,1.6625,1
39.2864,1.6593,1
39.2864,1.6552,1
39.2864,1.6496,1
39.2864,1.6448,1
39.2865,1.6407,1
39.2865,1.6375,1
39.2865,1.6375,1
39.2865,1.6391,1
39.2865,1.6399,1
39.2866,1.6423,1
39.2866,1.6464,1
39.2866,1.6496,1
39.2866,1.6520,1
39.2866,1.6560,1
39.2866,1.6585,1
39.2867,1.6601,1
39.2867,1.6601,1
39.2867,1.6609,1
39.2867,1.6609,1
39.2867,1.6601,1
39.2867,1.6585,1
39.2868,1.6577,1
39.2868,1.6544,1
39.2868,1.6504,1
39.2868,1.6488,1
39.2868,1.6448,1
39.2868,1.6423,1
39.2868,1.6399,1
39.2869,1.6391,1
39.2869,1.6391,1
39.2869,1.6407,1
39.2869,1.6432,1
39.2869,1.6496,1
39.2870,1.6544,1
39.2870,1.6577,1
39.2870,1.6625,1
39.2870,1.6657,1
39.2870,1.6673,1
39.2870,1.6665,1
39.2871,1.6641,1
39.2871,1.6601,1
39.2871,1.6560,1
39.2871,1.6496,1
39.2871,1.6448,1
39.2871,1.6423,1
39.2871,1.6399,1
39.2872,1.6391,1
39.2872,1.6391,1
39.2872,1.6407,1
39.2872,1.6448,1
39.2872,1.6480,1
39.2872,1.6512,1
39.2873,1.6544,1
39.2873,1.6577,1
39.2873,1.6593,1
39.2873,1.6625,1
39.2873,1.6617,1
39.2873,1.6625,1
39.2873,1.6617,1
39.2874,1.6609,1
39.2874,1.6593,1
39.2874,1.6577,1
39.2874,1.6536,1
39.2874,1.6496,1
39.2875,1.6464,1
39.2875,1.6423,1
39.2875,1.6407,1
39.2875,1.6375,1
39.2875,1.6367,1
39.2875,1.6367,1
39.2876,1.6383,1
39.2876,1.6375,1
39.2876,1.6423,1
39.2876,1.6480,1
39.2876,1.6528,1
39.2876,1.6568,1
39.2877,1.6593,1
39.2877,1.6617,1
39.2877,1.6625,1
39.2877,1.6601,1
39.2877,1.6568,1
39.2877,1.6552,1
39.2877,1.6496,1
39.2878,1.6440,1
39.2878,1.6399,1
39.2878,1.6367,1
39.2878,1.6359,1
39.2878,1.6367,1
39.2878,1.6367,1
39.2879,1.6391,1
39.2879,1.6432,1
39.2879,1.6464,1
39.2879,1.6504,1
39.2879,1.6544,1
39.2879,1.6568,1
39.2880,1.6593,1
39.2880,1.6585,1
39.2880,1.6593,1
39.2880,1.6601,1
39.2880,1.6593,1
39.2881,1.6448,1
39.2881,1.6440,1
39.2881,1.6423,1
39.2881,1.6399,1
39.2881,1.6367,1
39.2881,1.6343,1
39.2881,1.6335,1
39.2882,1.6319,1
39.2882,1.6311,1
39.2882,1.6311,1
39.2882,1.6472,1
39.2882,1.6496,1
39.3459,1.6528,1
39.3459,1.6568,1
39.3459,1.6617,1
39.3459,1.6649,1
39.3459,1.6665,1
39.3460,1.6673,1
39.3460,1.6665,1
39.3460,1.6625,1
39.3460,1.6577,1
39.3460,1.6520,1
39.3460,1.6464,1
39.3461,1.6415,1
39.3461,1.6343,1
39.3461,1.6319,1
39.3461,1.6319,1
39.3461,1.6327,1
39.3461,1.6343,1
39.3462,1.6375,1
39.3462,1.6319,1
39.3462,1.6367,1
39.3462,1.6415,1
39.3462,1.6464,1
39.3462,1.6512,1
39.3463,1.6544,1
39.3463,1.6689,1
39.3463,1.6681,1
39.3463,1.6665,1
39.3463,1.6649,1
39.3463,1.6722,1
39.3463,1.6689,1
39.3464,1.6714,1
39.3464,1.6649,1
39.3464,1.6601,1
39.3464,1.6552,1
39.3464,1.6359,1
39.3464,1.6335,1
39.3465,1.6335,1
39.3465,1.6351,1
39.3465,1.6440,1
39.3465,1.6464,1
39.3465,1.6464,1
39.3465,1.6568,1
39.3466,1.6617,1
39.3466,1.6673,1
39.3466,1.6496,1
39.3466,1.6544,1
39.3466,1.6560,1
39.3466,1.6560,1
39.3467,1.6480,1
39.3467,1.6456,1
39.3467,1.6407,1
39.3467,1.6327,1
39.3467,1.6319,1
39.3467,1.6295,1
39.3467,1.6568,1
39.3468,1.6520,1
39.3468,1.6488,1
39.3468,1.6488,1
39.3468,1.6504,1
39.3468,1.6520,1
39.3468,1.6536,1
39.3469,1.6536,1
39.3469,1.6536,1
39.3469,1.6520,1
39.3469,1.6480,1
39.3469,1.6407,1
39.3469,1.6448,1
39.3470,1.6448,1
39.3470,1.6440,1
39.3470,1.6432,1
39.3470,1.6399,1
39.3470,1.6399,1
39.3471,1.6359,1
39.3471,1.6335,1
39.3471,1.6295,1
39.3471,1.6367,1
39.3471,1.6351,1
39.3471,1.6343,1
39.3472,1.6367,1
39.3472,1.6399,1
39.3472,1.6448,1
39.3472,1.6488,1
39.3472,1.6536,1
39.3472,1.6601,1
39.3473,1.6641,1
39.3473,1.6665,1
39.3473,1.6657,1
39.3473,1.6641,1
39.3473,1.6568,1
39.3473,1.6488,1
39.3473,1.6440,1
39.3474,1.6399,1
39.3474,1.6367,1
39.3474,1.6375,1
39.3474,1.6367,1
39.3474,1.6375,1
39.3474,1.6391,1
39.3475,1.6415,1
39.3475,1.6448,1
39.3475,1.6528,1
39.3475,1.6552,1
39.3475,1.6560,1
39.3476,1.6593,1
39.3476,1.6528,1
39.3476,1.6544,1
39.3476,1.6456,1
39.3476,1.6472,1
39.3476,1.6528,1
39.3476,1.6552,1
39.3477,1.6512,1
39.3477,1.6488,1
39.3477,1.6472,1
39.3477,1.6440,1
39.3477,1.6464,1
39.3477,1.6415,1
39.3478,1.6512,1
39.3478,1.6464,1
39.3478,1.6496,1
39.3478,1.6496,1
39.4058,1.6520,1
39.4058,1.6560,1
39.4058,1.6593,1
39.4058,1.6625,1
39.4058,1.6681,1
39.4059,1.6714,1
39.4059,1.6665,1
39.4059,1.6649,1
39.4059,1.6714,1
39.4059,1.6657,1
39.4059,1.6633,1
39.4060,1.6585,1
39.4060,1.6560,1
39.4060,1.6528,1
39.4060,1.6480,1
39.4060,1.6480,1
39.4060,1.6544,1
39.4061,1.6593,1
39.4061,1.6440,1
39.4061,1.6504,1
39.4061,1.6536,1
39.4061,1.6593,1
39.4061,1.6601,1
39.4061,1.6641,1
39.4062,1.6649,1
39.4062,1.6665,1
39.4062,1.6657,1
39.4062,1.6665,1
39.4062,1.6617,1
39.4062,1.6601,1
39.4063,1.6593,1
39.4063,1.6560,1
39.4063,1.6560,1
39.4063,1.6520,1
39.4063,1.6512,1
39.4063,1.6472,1
39.4063,1.6375,1
39.4064,1.6351,1
39.4064,1.6399,1
39.4064,1.6399,1
39.4064,1.6432,1
39.4064,1.6464,1
39.4065,1.6472,1
39.4065,1.6512,1
39.4065,1.6544,1
39.4065,1.6560,1
39.4065,1.6601,1
39.4065,1.6593,1
39.4065,1.6568,1
39.4066,1.6528,1
39.4066,1.6448,1
39.4066,1.6399,1
39.4066,1.6351,1
39.4066,1.6319,1
39.4066,1.6262,1
39.4067,1.6262,1
39.4067,1.6303,1
39.4067,1.6327,1
39.4067,1.6359,1
39.4067,1.6399,1
39.4067,1.6415,1
39.4067,1.6456,1
39.4068,1.6464,1
39.4068,1.6504,1
39.4068,1.6560,1
39.4068,1.6577,1
39.4068,1.6585,1
39.4068,1.6585,1
39.4069,1.6577,1
39.4069,1.6568,1
39.4069,1.6568,1
39.4069,1.6568,1
39.4069,1.6560,1
39.4069,1.6512,1
39.4070,1.6464,1
39.4070,1.6423,1
39.4070,1.6383,1
39.4070,1.6367,1
39.4070,1.6399,1
39.4070,1.6415,1
39.4071,1.6448,1
39.4071,1.6472,1
39.4071,1.6512,1
39.4071,1.6544,1
39.4071,1.6593,1
39.4071,1.6633,1
39.4071,1.6673,1
39.4072,1.6673,1
39.4072,1.6641,1
39.4072,1.6609,1
39.4072,1.6577,1
39.4072,1.6512,1
39.4072,1.6617,1
39.4073,1.6585,1
39.4073,1.6528,1
39.4073,1.6488,1
39.4073,1.6432,1
39.4073,1.6448,1
39.4073,1.6472,1
39.4073,1.6496,1
39.4074,1.6472,1
39.4074,1.6528,1
39.4074,1.6440,1
39.4074,1.6496,1
39.4074,1.6544,1
39.4074,1.6480,1
39.4075,1.6343,1
39.4075,1.6375,1
39.4075,1.6383,1
39.4075,1.6343,1
39.4075,1.6440,1
39.4075,1.6407,1
39.4076,1.6359,1
39.4076,1.6335,1
39.4076,1.6383,1
39.4076,1.6432,1
39.4076,1.6568,1
39.4076,1.6512,1
39.4077,1.6472,1
39.4077,1.6496,1
39.4657,1.6448,1
39.4657,1.6456,1
39.4657,1.6568,1
39.4657,1.6577,1
39.4658,1.6512,1
39.4658,1.6560,1
39.4658,1.6512,1
39.4658,1.6520,1
39.4658,1.6512,1
39.4658,1.6496,1
39.4659,1.6472,1
39.4659,1.6415,1
39.4659,1.6254,1
39.4659,1.6246,1
39.4659,1.6286,1
39.4659,1.6278,1
39.4660,1.6383,1
39.4660,1.6423,1
39.4660,1.6464,1
39.4660,1.6504,1
39.4660,1.6585,1
39.4660,1.6649,1
39.4661,1.6722,1
39.4661,1.6746,1
39.4661,1.6722,1
39.4661,1.6714,1
39.4661,1.6705,1
39.4661,1.6681,1
39.4662,1.6665,1
39.4662,1.6649,1
39.4662,1.6585,1
39.4662,1.6528,1
39.4662,1.6488,1
39.4662,1.6464,1
39.4662,1.6432,1
39.4663,1.6399,1
39.4663,1.6367,1
39.4663,1.6383,1
39.4663,1.6383,1
39.4663,1.6423,1
39.4663,1.6423,1
39.4664,1.6488,1
39.4664,1.6496,1
39.4664,1.6528,1
39.4664,1.6399,1
39.4664,1.6456,1
39.4664,1.6528,1
39.4665,1.6520,1
39.4665,1.6504,1
39.4665,1.6440,1
39.4665,1.6423,1
39.4665,1.6375,1
39.4665,1.6375,1
39.4666,1.6278,1
39.4666,1.6399,1
39.4666,1.6359,1
39.4666,1.6311,1
39.4666,1.6303,1
39.4666,1.6319,1
39.4666,1.6343,1
39.4667,1.6367,1
39.4667,1.6391,1
39.4667,1.6423,1
39.4667,1.6496,1
39.4667,1.6520,1
39.4667,1.6512,1
39.4668,1.6512,1
39.4668,1.6528,1
39.4668,1.6520,1
39.4668,1.6504,1
39.4668,1.6472,1
39.4668,1.6448,1
39.4668,1.6399,1
39.4669,1.6375,1
39.4669,1.6351,1
39.4669,1.6295,1
39.4669,1.6278,1
39.4669,1.6262,1
39.4669,1.6278,1
39.4670,1.6311,1
39.4670,1.6359,1
39.4670,1.6423,1
39.4670,1.6480,1
39.4670,1.6528,1
39.4670,1.6585,1
39.4671,1.6673,1
39.4671,1.6689,1
39.4671,1.6689,1
39.4671,1.6689,1
39.4671,1.6633,1
39.4671,1.6585,1
39.4672,1.6528,1
39.4672,1.6472,1
39.4672,1.6432,1
39.4672,1.6399,1
39.4672,1.6383,1
39.4672,1.6391,1
39.4672,1.6399,1
39.4673,1.6407,1
39.4673,1.6456,1
39.4673,1.6488,1
39.4673,1.6536,1
39.4673,1.6568,1
39.4673,1.6593,1
39.4674,1.6609,1
39.4674,1.6625,1
39.4674,1.6633,1
39.4674,1.6625,1
39.4674,1.6617,1
39.4674,1.6601,1
39.4674,1.6585,1
39.4675,1.6552,1
39.4675,1.6512,1
39.4675,1.6488,1
39.4675,1.6448,1
39.4675,1.6423,1
39.4676,1.6399,1
39.4676,1.6391,1
39.4676,1.6399,1
39.4676,1.6423,1
39.5259,1.6448,1
39.5259,1.6488,1
39.5259,1.6544,1
39.5259,1.6585,1
39.5259,1.6633,1
39.5260,1.6657,1
39.5260,1.6665,1
39.5260,1.6665,1
39.5260,1.6641,1
39.5260,1.6601,1
39.5260,1.6536,1
39.5261,1.6488,1
39.5261,1.6440,1
39.5261,1.6383,1
39.5261,1.6359,1
39.5261,1.6351,1
39.5261,1.6351,1
39.5261,1.6359,1
39.5262,1.6383,1
39.5262,1.6415,1
39.5262,1.6472,1
39.5262,1.6851,1
39.5262,1.6851,1
39.5262,1.6851,1
39.5263,1.6851,1
39.5263,1.6834,1
39.5263,1.6818,1
39.5263,1.6834,1
39.5263,1.6826,1
39.5263,1.6802,1
39.5264,1.6786,1
39.5264,1.6423,1
39.5264,1.6440,1
39.5264,1.6440,1
39.5264,1.6448,1
39.5264,1.6456,1
39.5265,1.6464,1
39.5265,1.6448,1
39.5265,1.6480,1
39.5265,1.6512,1
39.5265,1.6560,1
39.5265,1.6609,1
39.5266,1.6665,1
39.5266,1.6730,1
39.5266,1.6770,1
39.5266,1.6810,1
39.5266,1.6826,1
39.5266,1.6834,1
39.5267,1.6794,1
39.5267,1.6746,1
39.5267,1.6681,1
39.5267,1.6609,1
39.5267,1.6544,1
39.5267,1.6480,1
39.5267,1.6440,1
39.5268,1.6407,1
39.5268,1.6391,1
39.5268,1.6383,1
39.5268,1.6399,1
39.5268,1.6432,1
39.5268,1.6456,1
39.5269,1.6488,1
39.5269,1.6512,1
39.5269,1.6544,1
39.5269,1.6568,1
39.5269,1.6585,1
39.5269,1.6593,1
39.5270,1.6593,1
39.5270,1.6585,1
39.5270,1.6560,1
39.5270,1.6560,1
39.5270,1.6544,1
39.5270,1.6512,1
39.5271,1.6480,1
39.5271,1.6440,1
39.5271,1.6415,1
39.5271,1.6399,1
39.5271,1.6391,1
39.5271,1.6399,1
39.5271,1.6423,1
39.5272,1.6448,1
39.5272,1.6488,1
39.5272,1.6544,1
39.5272,1.6617,1
39.5272,1.6649,1
39.5272,1.6689,1
39.5273,1.6705,1
39.5273,1.6714,1
39.5273,1.6689,1
39.5273,1.6657,1
39.5273,1.6609,1
39.5273,1.6560,1
39.5273,1.6504,1
39.5274,1.6448,1
39.5274,1.6415,1
39.5274,1.6407,1
39.5274,1.6399,1
39.5274,1.6399,1
39.5274,1.6423,1
39.5275,1.6448,1
39.5275,1.6480,1
39.5275,1.6504,1
39.5275,1.6544,1
39.5275,1.6577,1
39.5275,1.6593,1
39.5276,1.6601,1
39.5276,1.6625,1
39.5276,1.6625,1
39.5276,1.6617,1
39.5276,1.6601,1
39.5276,1.6577,1
39.5277,1.6552,1
39.5277,1.6520,1
39.5277,1.6488,1
39.5277,1.6456,1
39.5277,1.6423,1
39.5277,1.6375,1
39.5277,1.6359,1
39.5278,1.6367,1
39.5278,1.6383,1
39.5852,1.6415,1
39.5852,1.6448,1
39.5852,1.6504,1
39.5852,1.6544,1
39.5853,1.6585,1
39.5853,1.6617,1
39.5853,1.6625,1
39.5853,1.6633,1
39.5853,1.6601,1
39.5853,1.6577,1
39.5854,1.6528,1
39.5854,1.6496,1
39.5854,1.6432,1
39.5854,1.6383,1
39.5854,1.6359,1
39.5854,1.6351,1
39.5855,1.6351,1
39.5855,1.6367,1
39.5855,1.6399,1
39.5855,1.6423,1
39.5855,1.6464,1
39.5855,1.6496,1
39.5856,1.6528,1
39.5856,1.6560,1
39.5856,1.6577,1
39.5856,1.6593,1
39.5856,1.6609,1
39.5856,1.6609,1
39.5857,1.6601,1
39.5857,1.6593,1
39.5857,1.6568,1
39.5857,1.6544,1
39.5857,1.6520,1
39.5857,1.6472,1
39.5857,1.6440,1
39.5858,1.6399,1
39.5858,1.6359,1
39.5858,1.6335,1
39.5858,1.6335,1
39.5858,1.6351,1
39.5858,1.6383,1
39.5859,1.6440,1
39.5859,1.6488,1
39.5859,1.6544,1
39.5859,1.6601,1
39.5860,1.6649,1
39.5860,1.6673,1
39.5860,1.6681,1
39.5860,1.6665,1
39.5860,1.6625,1
39.5860,1.6577,1
39.5861,1.6504,1
39.5861,1.6448,1
39.5861,1.6407,1
39.5861,1.6375,1
39.5861,1.6359,1
39.5861,1.6343,1
39.5862,1.6351,1
39.5862,1.6375,1
39.5862,1.6415,1
39.5862,1.6456,1
39.5862,1.6480,1
39.5862,1.6520,1
39.5862,1.6544,1
39.5863,1.6560,1
39.5863,1.6568,1
39.5863,1.6577,1
39.5863,1.6585,1
39.5863,1.6577,1
39.5863,1.6577,1
39.5864,1.6560,1
39.5864,1.6536,1
39.5864,1.6504,1
39.5864,1.6480,1
39.5864,1.6440,1
39.5864,1.6415,1
39.5865,1.6399,1
39.5865,1.6383,1
39.5865,1.6391,1
39.5865,1.6399,1
39.5865,1.6432,1
39.5866,1.6472,1
39.5866,1.6520,1
39.5866,1.6577,1
39.5866,1.6625,1
39.5866,1.6657,1
39.5866,1.6673,1
39.5866,1.6673,1
39.5867,1.6641,1
39.5867,1.6609,1
39.5867,1.6560,1
39.5867,1.6512,1
39.5867,1.6464,1
39.5867,1.6407,1
39.5868,1.6375,1
39.5868,1.6367,1
39.5868,1.6359,1
39.5868,1.6375,1
39.5868,1.6399,1
39.5868,1.6432,1
39.5868,1.6464,1
39.5869,1.6504,1
39.5869,1.6544,1
39.5869,1.6423,1
39.5869,1.6464,1
39.5869,1.6480,1
39.5870,1.6504,1
39.5870,1.6512,1
39.5870,1.6512,1
39.5870,1.6512,1
39.5870,1.6504,1
39.5870,1.6464,1
39.5871,1.6423,1
39.5871,1.6528,1
39.5871,1.6464,1
39.5871,1.6423,1
39.5871,1.6383,1
39.5871,1.6351,1
39.5871,1.6343,1
39.6441,1.6335,1
39.6441,1.6351,1
39.6441,1.6383,1
39.6441,1.6472,1
39.6441,1.6520,1
39.6442,1.6568,1
39.6442,1.6593,1
39.6442,1.6609,1
39.6442,1.6617,1
39.6442,1.6593,1
39.6442,1.6560,1
39.6443,1.6520,1
39.6443,1.6472,1
39.6443,1.6383,1
39.6443,1.6351,1
39.6443,1.6327,1
39.6443,1.6319,1
39.6443,1.6319,1
39.6444,1.6343,1
39.6444,1.6383,1
39.6444,1.6423,1
39.6444,1.6472,1
39.6444,1.6512,1
39.6445,1.6544,1
39.6445,1.6577,1
39.6445,1.6601,1
39.6445,1.6617,1
39.6445,1.6633,1
39.6445,1.6625,1
39.6446,1.6609,1
39.6446,1.6601,1
39.6446,1.6585,1
39.6446,1.6560,1
39.6446,1.6536,1
39.6446,1.6504,1
39.6446,1.6472,1
39.6447,1.6440,1
39.6447,1.6391,1
39.6447,1.6367,1
39.6447,1.6375,1
39.6447,1.6375,1
39.6447,1.6351,1
39.6448,1.6383,1
39.6448,1.6432,1
39.6448,1.6488,1
39.6448,1.6528,1
39.6448,1.6568,1
39.6448,1.6609,1
39.6449,1.6625,1
39.6449,1.6609,1
39.6449,1.6568,1
39.6449,1.6577,1
39.6449,1.6528,1
39.6449,1.6472,1
39.6450,1.6415,1
39.6450,1.6383,1
39.6450,1.6351,1
39.6450,1.6295,1
39.6450,1.6303,1
39.6451,1.6327,1
39.6451,1.6375,1
39.6451,1.6359,1
39.6451,1.6399,1
39.6451,1.6432,1
39.6451,1.6464,1
39.6451,1.6488,1
39.6452,1.6504,1
39.6452,1.6552,1
39.6452,1.6738,1
39.6452,1.6705,1
39.6452,1.6665,1
39.6452,1.6681,1
39.6453,1.6633,1
39.6453,1.6593,1
39.6453,1.6544,1
39.6453,1.6504,1
39.6453,1.6464,1
39.6453,1.6440,1
39.6453,1.6246,1
39.6454,1.6262,1
39.6454,1.6399,1
39.6454,1.6432,1
39.6454,1.6166,1
39.6454,1.6262,1
39.6454,1.6351,1
39.6455,1.6423,1
39.6455,1.6488,1
39.6455,1.6536,1
39.6455,1.6560,1
39.6455,1.6560,1
39.6456,1.6407,1
39.6456,1.6391,1
39.6456,1.6673,1
39.6456,1.6601,1
39.6456,1.6536,1
39.6456,1.6480,1
39.6457,1.6432,1
39.6457,1.6399,1
39.6457,1.6391,1
39.6457,1.6391,1
39.6457,1.6432,1
39.6457,1.6440,1
39.6457,1.6448,1
39.6458,1.6448,1
39.6458,1.6504,1
39.6458,1.6504,1
39.6458,1.6512,1
39.6458,1.6262,1
39.6458,1.6246,1
39.6459,1.6278,1
39.6459,1.6303,1
39.6459,1.6311,1
39.6459,1.6311,1
39.6459,1.6311,1
39.6459,1.6238,1
39.6460,1.6238,1
39.6460,1.6230,1
39.6460,1.6464,1
39.7030,1.6472,1
39.7030,1.6448,1
39.7030,1.6440,1
39.7030,1.6448,1
39.7030,1.6472,1
39.7030,1.6512,1
39.7031,1.6544,1
39.7031,1.6585,1
39.7031,1.6617,1
39.7031,1.6633,1
39.7031,1.6625,1
39.7031,1.6617,1
39.7032,1.6585,1
39.7032,1.6536,1
39.7032,1.6480,1
39.7032,1.6440,1
39.7032,1.6399,1
39.7032,1.6375,1
39.7032,1.6367,1
39.7033,1.6367,1
39.7033,1.6391,1
39.7033,1.6399,1
39.7033,1.6440,1
39.7033,1.6480,1
39.7033,1.6520,1
39.7034,1.6552,1
39.7034,1.6593,1
39.7034,1.6617,1
39.7034,1.6625,1
39.7034,1.6641,1
39.7034,1.6649,1
39.7035,1.6649,1
39.7035,1.6649,1
39.7035,1.6633,1
39.7035,1.6617,1
39.7035,1.6593,1
39.7035,1.6552,1
39.7036,1.6512,1
39.7036,1.6472,1
39.7036,1.6448,1
39.7036,1.6423,1
39.7036,1.6415,1
39.7036,1.6423,1
39.7037,1.6456,1
39.7037,1.6488,1
39.7037,1.6528,1
39.7037,1.6568,1
39.7037,1.6617,1
39.7037,1.6641,1
39.7037,1.6689,1
39.7038,1.6665,1
39.7038,1.6552,1
39.7038,1.6520,1
39.7038,1.6448,1
39.7038,1.6407,1
39.7038,1.6351,1
39.7039,1.6423,1
39.7039,1.6278,1
39.7039,1.6278,1
39.7039,1.6246,1
39.7039,1.6270,1
39.7039,1.6391,1
39.7040,1.6423,1
39.7040,1.6585,1
39.7040,1.6609,1
39.7040,1.6617,1
39.7040,1.6536,1
39.7040,1.6649,1
39.7041,1.6649,1
39.7041,1.6609,1
39.7041,1.6633,1
39.7041,1.6681,1
39.7041,1.6673,1
39.7041,1.6536,1
39.7041,1.6504,1
39.7042,1.6464,1
39.7042,1.6432,1
39.7042,1.6415,1
39.7042,1.6399,1
39.7042,1.6415,1
39.7042,1.6391,1
39.7043,1.6375,1
39.7043,1.6367,1
39.7043,1.6407,1
39.7043,1.6456,1
39.7043,1.6552,1
39.7043,1.6609,1
39.7043,1.6609,1
39.7044,1.6649,1
39.7044,1.6673,1
39.7044,1.6697,1
39.7044,1.6609,1
39.7044,1.6601,1
39.7044,1.6585,1
39.7045,1.6536,1
39.7045,1.6472,1
39.7045,1.6423,1
39.7045,1.6407,1
39.7045,1.6375,1
39.7045,1.6375,1
39.7046,1.6383,1
39.7046,1.6432,1
39.7046,1.6448,1
39.7046,1.6456,1
39.7046,1.6488,1
39.7046,1.6520,1
39.7047,1.6528,1
39.7047,1.6577,1
39.7047,1.6585,1
39.7047,1.6577,1
39.7047,1.6560,1
39.7047,1.6536,1
39.7047,1.6520,1
39.7048,1.6577,1
39.7048,1.6544,1
39.7048,1.6528,1
39.7048,1.6496,1
39.7620,1.6448,1
39.7620,1.6415,1
39.7620,1.6391,1
39.7621,1.6383,1
39.7621,1.6415,1
39.7621,1.6440,1
39.7621,1.6367,1
39.7621,1.6415,1
39.7621,1.6480,1
39.7622,1.6536,1
39.7622,1.6560,1
39.7622,1.6601,1
39.7622,1.6657,1
39.7622,1.6665,1
39.7622,1.6633,1
39.7622,1.6577,1
39.7623,1.6536,1
39.7623,1.6504,1
39.7623,1.6448,1
39.7623,1.6399,1
39.7623,1.6391,1
39.7623,1.6367,1
39.7624,1.6343,1
39.7624,1.6270,1
39.7624,1.6327,1
39.7624,1.6383,1
39.7624,1.6432,1
39.7624,1.6456,1
39.7625,1.6440,1
39.7625,1.6480,1
39.7625,1.6512,1
39.7625,1.6528,1
39.7625,1.6560,1
39.7625,1.6633,1
39.7626,1.6544,1
39.7626,1.6520,1
39.7626,1.6456,1
39.7626,1.6432,1
39.7626,1.6440,1
39.7626,1.6407,1
39.7626,1.6319,1
39.7627,1.6286,1
39.7627,1.6230,1
39.7627,1.6214,1
39.7627,1.6278,1
39.7627,1.6303,1
39.7627,1.6464,1
39.7628,1.6480,1
39.7628,1.6625,1
39.7628,1.6665,1
39.7628,1.6778,1
39.7628,1.6802,1
39.7628,1.6818,1
39.7628,1.6818,1
39.7629,1.6722,1
39.7629,1.6681,1
39.7629,1.6552,1
39.7629,1.6472,1
39.7629,1.6335,1
39.7630,1.6311,1
39.7630,1.6270,1
39.7630,1.6230,1
39.7630,1.6254,1
39.7630,1.6246,1
39.7630,1.6367,1
39.7631,1.6415,1
39.7631,1.6480,1
39.7631,1.6568,1
39.7631,1.6609,1
39.7631,1.6625,1
39.7631,1.6657,1
39.7631,1.6705,1
39.7632,1.6722,1
39.7632,1.6746,1
39.7632,1.6705,1
39.7632,1.6673,1
39.7632,1.6641,1
39.7632,1.6585,1
39.7633,1.6536,1
39.7633,1.6496,1
39.7633,1.6464,1
39.7633,1.6423,1
39.7633,1.6383,1
39.7633,1.6351,1
39.7633,1.6343,1
39.7634,1.6351,1
39.7634,1.6367,1
39.7634,1.6415,1
39.7634,1.6472,1
39.7634,1.6528,1
39.7634,1.6560,1
39.7635,1.6593,1
39.7635,1.6657,1
39.7635,1.6681,1
39.7635,1.6681,1
39.7635,1.6657,1
39.7635,1.6617,1
39.7636,1.6585,1
39.7636,1.6528,1
39.7636,1.6504,1
39.7636,1.6472,1
39.7636,1.6464,1
39.7636,1.6423,1
39.7637,1.6415,1
39.7637,1.6440,1
39.7637,1.6472,1
39.7637,1.6544,1
39.7637,1.6577,1
39.7637,1.6609,1
39.7637,1.6617,1
39.7638,1.6633,1
39.7638,1.6593,1
39.7638,1.6609,1
39.7638,1.6625,1
39.7638,1.6625,1
39.7638,1.6617,1
39.7639,1.6560,1
39.7639,1.6536,1
39.8211,1.6512,1
39.8211,1.6472,1
39.8211,1.6440,1
39.8211,1.6448,1
39.8212,1.6415,1
39.8212,1.6391,1
39.8212,1.6367,1
39.8212,1.6423,1
39.8212,1.6440,1
39.8212,1.6536,1
39.8212,1.6568,1
39.8213,1.6609,1
39.8213,1.6649,1
39.8213,1.6681,1
39.8213,1.6697,1
39.8213,1.6697,1
39.8213,1.6681,1
39.8214,1.6609,1
39.8214,1.6568,1
39.8214,1.6472,1
39.8214,1.6440,1
39.8214,1.6407,1
39.8214,1.6375,1
39.8215,1.6343,1
39.8215,1.6367,1
39.8215,1.6391,1
39.8215,1.6423,1
39.8216,1.6448,1
39.8216,1.6496,1
39.8216,1.6528,1
39.8216,1.6544,1
39.8216,1.6568,1
39.8216,1.6585,1
39.8217,1.6625,1
39.8217,1.6625,1
39.8217,1.6625,1
39.8217,1.6609,1
39.8217,1.6577,1
39.8217,1.6552,1
39.8217,1.6528,1
39.8218,1.6496,1
39.8218,1.6456,1
39.8218,1.6440,1
39.8218,1.6512,1
39.8218,1.6472,1
39.8218,1.6464,1
39.8219,1.6456,1
39.8219,1.6472,1
39.8219,1.6488,1
39.8219,1.6697,1
39.8219,1.6746,1
39.8219,1.6770,1
39.8220,1.6794,1
39.8220,1.6714,1
39.8220,1.6738,1
39.8220,1.6754,1
39.8220,1.6754,1
39.8220,1.6738,1
39.8221,1.6705,1
39.8221,1.6496,1
39.8221,1.6448,1
39.8221,1.6456,1
39.8221,1.6448,1
39.8221,1.6448,1
39.8222,1.6456,1
39.8222,1.6440,1
39.8222,1.6472,1
39.8222,1.6520,1
39.8222,1.6552,1
39.8222,1.6585,1
39.8222,1.6633,1
39.8223,1.6641,1
39.8223,1.6665,1
39.8223,1.6681,1
39.8223,1.6689,1
39.8223,1.6681,1
39.8223,1.6665,1
39.8224,1.6641,1
39.8224,1.6617,1
39.8224,1.6593,1
39.8224,1.6560,1
39.8224,1.6504,1
39.8224,1.6456,1
39.8224,1.6407,1
39.8225,1.6359,1
39.8225,1.6343,1
39.8225,1.6335,1
39.8225,1.6343,1
39.8225,1.6359,1
39.8225,1.6399,1
39.8226,1.6440,1
39.8226,1.6488,1
39.8226,1.6536,1
39.8226,1.6568,1
39.8226,1.6609,1
39.8226,1.6617,1
39.8227,1.6593,1
39.8227,1.6593,1
39.8227,1.6552,1
39.8227,1.6496,1
39.8227,1.6456,1
39.8227,1.6415,1
39.8228,1.6383,1
39.8228,1.6391,1
39.8228,1.6399,1
39.8228,1.6407,1
39.8228,1.6432,1
39.8228,1.6440,1
39.8228,1.6472,1
39.8229,1.6512,1
39.8229,1.6544,1
39.8229,1.6568,1
39.8229,1.6593,1
39.8229,1.6585,1
39.8229,1.6577,1
39.8230,1.6593,1
39.8230,1.6601,1
39.8230,1.6601,1
39.8231,1.6593,1
39.8799,1.6560,1
39.8799,1.6528,1
39.8799,1.6496,1
39.8799,1.6456,1
39.8800,1.6432,1
39.8800,1.6415,1
39.8800,1.6383,1
39.8800,1.6359,1
39.8800,1.6359,1
39.8800,1.6383,1
39.8801,1.6415,1
39.8801,1.6480,1
39.8801,1.6528,1
39.8801,1.6585,1
39.8801,1.6609,1
39.8801,1.6625,1
39.8801,1.6641,1
39.8802,1.6641,1
39.8802,1.6625,1
39.8802,1.6568,1
39.8802,1.6520,1
39.8802,1.6464,1
39.8802,1.6423,1
39.8803,1.6383,1
39.8803,1.6351,1
39.8803,1.6367,1
39.8803,1.6367,1
39.8803,1.6375,1
39.8803,1.6399,1
39.8804,1.6464,1
39.8804,1.6496,1
39.8804,1.6520,1
39.8804,1.6536,1
39.8804,1.6552,1
39.8804,1.6585,1
39.8804,1.6585,1
39.8805,1.6593,1
39.8805,1.6609,1
39.8805,1.6568,1
39.8805,1.6544,1
39.8805,1.6536,1
39.8805,1.6512,1
39.8806,1.6496,1
39.8806,1.6464,1
39.8806,1.6423,1
39.8806,1.6391,1
39.8806,1.6367,1
39.8806,1.6351,1
39.8806,1.6383,1
39.8807,1.6399,1
39.8807,1.6423,1
39.8807,1.6480,1
39.8807,1.6528,1
39.8807,1.6585,1
39.8807,1.6609,1
39.8808,1.6633,1
39.8808,1.6641,1
39.8808,1.6625,1
39.8808,1.6601,1
39.8808,1.6577,1
39.8808,1.6528,1
39.8808,1.6464,1
39.8809,1.6415,1
39.8809,1.6383,1
39.8809,1.6367,1
39.8809,1.6367,1
39.8809,1.6383,1
39.8809,1.6415,1
39.8810,1.6440,1
39.8810,1.6464,1
39.8810,1.6496,1
39.8810,1.6552,1
39.8810,1.6577,1
39.8810,1.6601,1
39.8811,1.6625,1
39.8811,1.6625,1
39.8811,1.6633,1
39.8811,1.6617,1
39.8811,1.6617,1
39.8811,1.6601,1
39.8812,1.6577,1
39.8812,1.6536,1
39.8812,1.6480,1
39.8812,1.6448,1
39.8812,1.6399,1
39.8812,1.6367,1
39.8812,1.6343,1
39.8813,1.6335,1
39.8813,1.6343,1
39.8813,1.6375,1
39.8813,1.6407,1
39.8813,1.6456,1
39.8813,1.6528,1
39.8814,1.6577,1
39.8814,1.6625,1
39.8814,1.6665,1
39.8814,1.6673,1
39.8814,1.6665,1
39.8814,1.6625,1
39.8814,1.6585,1
39.8815,1.6536,1
39.8815,1.6488,1
39.8815,1.6440,1
39.8815,1.6399,1
39.8815,1.6383,1
39.8815,1.6375,1
39.8816,1.6391,1
39.8816,1.6399,1
39.8816,1.6440,1
39.8816,1.6472,1
39.8816,1.6504,1
39.8816,1.6544,1
39.8817,1.6568,1
39.8817,1.6585,1
39.8817,1.6609,1
39.8817,1.6617,1
39.8817,1.6617,1
39.9377,1.6617,1
39.9378,1.6617,1
39.9378,1.6609,1
39.9378,1.6585,1
39.9378,1.6552,1
39.9378,1.6528,1
39.9378,1.6504,1
39.9379,1.6456,1
39.9379,1.6440,1
39.9379,1.6423,1
39.9379,1.6423,1
39.9379,1.6440,1
39.9379,1.6456,1
39.9380,1.6488,1
39.9380,1.6544,1
39.9380,1.6593,1
39.9380,1.6633,1
39.9380,1.6665,1
39.9380,1.6681,1
39.9381,1.6689,1
39.9381,1.6673,1
39.9381,1.6625,1
39.9381,1.6568,1
39.9381,1.6520,1
39.9381,1.6464,1
39.9381,1.6423,1
39.9382,1.6383,1
39.9382,1.6359,1
39.9382,1.6351,1
39.9382,1.6343,1
39.9382,1.6367,1
39.9382,1.6399,1
39.9383,1.6432,1
39.9383,1.6464,1
39.9383,1.6488,1
39.9383,1.6504,1
39.9383,1.6528,1
39.9383,1.6552,1
39.9383,1.6560,1
39.9384,1.6568,1
39.9384,1.6568,1
39.9384,1.6560,1
39.9384,1.6552,1
39.9384,1.6528,1
39.9384,1.6504,1
39.9385,1.6456,1
39.9385,1.6423,1
39.9385,1.6391,1
39.9385,1.6359,1
39.9385,1.6335,1
39.9385,1.6327,1
39.9385,1.6327,1
39.9386,1.6351,1
39.9386,1.6399,1
39.9386,1.6440,1
39.9386,1.6504,1
39.9386,1.6552,1
39.9386,1.6593,1
39.9387,1.6625,1
39.9387,1.6649,1
39.9387,1.6641,1
39.9387,1.6617,1
39.9387,1.6577,1
39.9387,1.6520,1
39.9387,1.6480,1
39.9388,1.6432,1
39.9388,1.6407,1
39.9388,1.6383,1
39.9388,1.6375,1
39.9388,1.6375,1
39.9388,1.6399,1
39.9389,1.6432,1
39.9389,1.6472,1
39.9389,1.6520,1
39.9389,1.6568,1
39.9389,1.6601,1
39.9389,1.6617,1
39.9389,1.6633,1
39.9390,1.6641,1
39.9390,1.6649,1
39.9390,1.6649,1
39.9390,1.6641,1
39.9390,1.6617,1
39.9390,1.6577,1
39.9391,1.6544,1
39.9391,1.6512,1
39.9391,1.6472,1
39.9391,1.6440,1
39.9391,1.6407,1
39.9391,1.6391,1
39.9392,1.6383,1
39.9392,1.6383,1
39.9392,1.6407,1
39.9392,1.6448,1
39.9392,1.6504,1
39.9392,1.6560,1
39.9392,1.6609,1
39.9393,1.6641,1
39.9393,1.6673,1
39.9393,1.6673,1
39.9393,1.6657,1
39.9393,1.6633,1
39.9393,1.6601,1
39.9394,1.6552,1
39.9394,1.6488,1
39.9394,1.6440,1
39.9394,1.6415,1
39.9394,1.6391,1
39.9394,1.6383,1
39.9394,1.6391,1
39.9395,1.6415,1
39.9395,1.6432,1
39.9395,1.6456,1
39.9395,1.6496,1
39.9395,1.6528,1
39.9396,1.6560,1
39.9966,1.6585,1
39.9966,1.6601,1
39.9966,1.6617,1
39.9966,1.6625,1
39.9967,1.6552,1
39.9967,1.6504,1
39.9967,1.6504,1
39.9967,1.6464,1
39.9967,1.6448,1
39.9967,1.6415,1
39.9968,1.6415,1
39.9968,1.6383,1
39.9968,1.6351,1
39.9968,1.6327,1
39.9968,1.6391,1
39.9968,1.6440,1
39.9969,1.6440,1
39.9969,1.6504,1
39.9969,1.6528,1
39.9969,1.6577,1
39.9969,1.6585,1
39.9969,1.6617,1
39.9970,1.6641,1
39.9970,1.6649,1
39.9970,1.6633,1
39.9970,1.6689,1
39.9970,1.6601,1
39.9970,1.6480,1
39.9970,1.6432,1
39.9971,1.6335,1
39.9971,1.6295,1
39.9971,1.6286,1
39.9971,1.6278,1
39.9971,1.6295,1
39.9971,1.6311,1
39.9971,1.6262,1
39.9972,1.6351,1
39.9972,1.6456,1
39.9972,1.6504,1
39.9972,1.6560,1
39.9972,1.6601,1
39.9972,1.6609,1
39.9973,1.6609,1
39.9973,1.6617,1
39.9973,1.6609,1
39.9973,1.6601,1
39.9973,1.6577,1
39.9973,1.6544,1
39.9973,1.6512,1
39.9974,1.6480,1
39.9974,1.6440,1
39.9974,1.6407,1
39.9974,1.6367,1
39.9974,1.6246,1
39.9974,1.6254,1
39.9975,1.6238,1
39.9975,1.6278,1
39.9975,1.6335,1
39.9975,1.6399,1
39.9975,1.6456,1
39.9975,1.6512,1
39.9975,1.6560,1
39.9976,1.6585,1
39.9976,1.6697,1
39.9976,1.6681,1
39.9976,1.6657,1
39.9976,1.6609,1
39.9976,1.6536,1
39.9977,1.6480,1
39.9977,1.6423,1
39.9977,1.6375,1
39.9977,1.6351,1
39.9977,1.6351,1
39.9977,1.6327,1
39.9977,1.6343,1
39.9978,1.6383,1
39.9978,1.6423,1
39.9978,1.6472,1
39.9978,1.6472,1
39.9978,1.6512,1
39.9978,1.6544,1
39.9979,1.6568,1
39.9979,1.6568,1
39.9979,1.6609,1
39.9979,1.6609,1
39.9979,1.6593,1
39.9979,1.6568,1
39.9979,1.6528,1
39.9980,1.6536,1
39.9980,1.6496,1
39.9980,1.6464,1
39.9980,1.6432,1
39.9980,1.6432,1
39.9980,1.6407,1
39.9981,1.6391,1
39.9981,1.6399,1
39.9981,1.6423,1
39.9981,1.6472,1
39.9981,1.6504,1
39.9981,1.6552,1
39.9982,1.6585,1
39.9982,1.6617,1
39.9982,1.6617,1
39.9982,1.6633,1
39.9982,1.6633,1
39.9982,1.6609,1
39.9982,1.6568,1
39.9983,1.6512,1
39.9983,1.6464,1
39.9983,1.6423,1
39.9983,1.6367,1
39.9983,1.6351,1
39.9983,1.6351,1
39.9983,1.6359,1
39.9984,1.6456,1
39.9984,1.6480,1
39.9984,1.6520,1
40.0552,1.6544,1
40.0552,1.6560,1
40.0552,1.6577,1
40.0553,1.6641,1
40.0553,1.6657,1
40.0553,1.6657,1
40.0553,1.6657,1
40.0553,1.6375,1
40.0553,1.6391,1
40.0554,1.6383,1
40.0554,1.6383,1
40.0554,1.6423,1
40.0554,1.6399,1
40.0554,1.6359,1
40.0555,1.6327,1
40.0555,1.6303,1
40.0555,1.6286,1
40.0555,1.6552,1
40.0555,1.6504,1
40.0555,1.6681,1
40.0556,1.6681,1
40.0556,1.6649,1
40.0556,1.6673,1
40.0556,1.6705,1
40.0556,1.6722,1
40.0556,1.6738,1
40.0557,1.6746,1
40.0557,1.6657,1
40.0557,1.6657,1
40.0557,1.6520,1
40.0557,1.6480,1
40.0557,1.6456,1
40.0557,1.6423,1
40.0558,1.6407,1
40.0558,1.6399,1
40.0558,1.6415,1
40.0558,1.6423,1
40.0558,1.6448,1
40.0558,1.6496,1
40.0559,1.6480,1
40.0559,1.6544,1
40.0559,1.6609,1
40.0559,1.6641,1
40.0559,1.6665,1
40.0559,1.6681,1
40.0559,1.6673,1
40.0560,1.6673,1
40.0560,1.6673,1
40.0560,1.6665,1
40.0560,1.6633,1
40.0560,1.6593,1
40.0560,1.6536,1
40.0561,1.6496,1
40.0561,1.6472,1
40.0561,1.6432,1
40.0561,1.6432,1
40.0561,1.6407,1
40.0561,1.6399,1
40.0561,1.6359,1
40.0562,1.6391,1
40.0562,1.6423,1
40.0562,1.6528,1
40.0562,1.6568,1
40.0562,1.6601,1
40.0562,1.6641,1
40.0563,1.6625,1
40.0563,1.6625,1
40.0563,1.6568,1
40.0563,1.6560,1
40.0563,1.6520,1
40.0563,1.6488,1
40.0563,1.6399,1
40.0564,1.6367,1
40.0564,1.6343,1
40.0564,1.6319,1
40.0564,1.6319,1
40.0564,1.6335,1
40.0564,1.6391,1
40.0565,1.6448,1
40.0565,1.6464,1
40.0565,1.6488,1
40.0565,1.6512,1
40.0565,1.6536,1
40.0565,1.6585,1
40.0566,1.6601,1
40.0566,1.6609,1
40.0566,1.6609,1
40.0566,1.6633,1
40.0566,1.6617,1
40.0566,1.6633,1
40.0567,1.6609,1
40.0567,1.6593,1
40.0567,1.6552,1
40.0567,1.6480,1
40.0567,1.6440,1
40.0567,1.6367,1
40.0568,1.6343,1
40.0568,1.6343,1
40.0568,1.6327,1
40.0568,1.6286,1
40.0568,1.6327,1
40.0568,1.6367,1
40.0568,1.6423,1
40.0569,1.6480,1
40.0569,1.6528,1
40.0569,1.6568,1
40.0569,1.6601,1
40.0569,1.6568,1
40.0569,1.6577,1
40.0570,1.6544,1
40.0570,1.6496,1
40.0570,1.6448,1
40.0570,1.6456,1
40.0570,1.6432,1
40.0570,1.6391,1
40.0571,1.6415,1
40.0571,1.6391,1
40.0571,1.6391,1
40.1139,1.6399,1
40.1139,1.6415,1
40.1139,1.6440,1
40.1140,1.6488,1
40.1140,1.6456,1
40.1140,1.6351,1
40.1140,1.6391,1
40.1140,1.6423,1
40.1140,1.6423,1
40.1141,1.6464,1
40.1141,1.6472,1
40.1141,1.6520,1
40.1141,1.6512,1
40.1141,1.6472,1
40.1141,1.6440,1
40.1141,1.6399,1
40.1142,1.6351,1
40.1142,1.6270,1
40.1142,1.6270,1
40.1142,1.6536,1
40.1142,1.6512,1
40.1142,1.6520,1
40.1143,1.6520,1
40.1143,1.6528,1
40.1143,1.6552,1
40.1143,1.6714,1
40.1143,1.6738,1
40.1143,1.6722,1
40.1144,1.6722,1
40.1144,1.6399,1
40.1144,1.6415,1
40.1144,1.6375,1
40.1144,1.6367,1
40.1144,1.6359,1
40.1145,1.6343,1
40.1145,1.6327,1
40.1145,1.6319,1
40.1145,1.6407,1
40.1145,1.6407,1
40.1145,1.6448,1
40.1145,1.6472,1
40.1146,1.6512,1
40.1146,1.6552,1
40.1146,1.6552,1
40.1146,1.6585,1
40.1146,1.6528,1
40.1146,1.6544,1
40.1147,1.6552,1
40.1147,1.6577,1
40.1147,1.6568,1
40.1147,1.6560,1
40.1147,1.6536,1
40.1147,1.6504,1
40.1147,1.6480,1
40.1148,1.6440,1
40.1148,1.6472,1
40.1148,1.6423,1
40.1148,1.6391,1
40.1148,1.6335,1
40.1148,1.6319,1
40.1148,1.6319,1
40.1149,1.6335,1
40.1149,1.6367,1
40.1149,1.6423,1
40.1149,1.6480,1
40.1149,1.6536,1
40.1150,1.6601,1
40.1150,1.6633,1
40.1150,1.6673,1
40.1150,1.6673,1
40.1150,1.6641,1
40.1150,1.6593,1
40.1151,1.6512,1
40.1151,1.6464,1
40.1151,1.6415,1
40.1151,1.6295,1
40.1151,1.6262,1
40.1151,1.6262,1
40.1152,1.6278,1
40.1152,1.6311,1
40.1152,1.6319,1
40.1152,1.6359,1
40.1152,1.6440,1
40.1152,1.6480,1
40.1152,1.6496,1
40.1153,1.6625,1
40.1153,1.6625,1
40.1153,1.6617,1
40.1153,1.6609,1
40.1153,1.6593,1
40.1153,1.6601,1
40.1154,1.6577,1
40.1154,1.6552,1
40.1154,1.6512,1
40.1154,1.6472,1
40.1154,1.6415,1
40.1154,1.6383,1
40.1155,1.6359,1
40.1155,1.6343,1
40.1155,1.6319,1
40.1155,1.6319,1
40.1155,1.6351,1
40.1155,1.6375,1
40.1156,1.6440,1
40.1156,1.6496,1
40.1156,1.6552,1
40.1156,1.6585,1
40.1156,1.6609,1
40.1156,1.6649,1
40.1156,1.6649,1
40.1157,1.6633,1
40.1157,1.6593,1
40.1157,1.6544,1
40.1157,1.6480,1
40.1157,1.6536,1
40.1157,1.6496,1
40.1158,1.6472,1
40.1721,1.6464,1
40.1721,1.6440,1
40.1722,1.6456,1
40.1722,1.6480,1
40.1722,1.6528,1
40.1722,1.6560,1
40.1722,1.6601,1
40.1722,1.6488,1
40.1723,1.6536,1
40.1723,1.6560,1
40.1723,1.6577,1
40.1723,1.6593,1
40.1723,1.6601,1
40.1723,1.6601,1
40.1723,1.6585,1
40.1724,1.6568,1
40.1724,1.6536,1
40.1724,1.6536,1
40.1724,1.6504,1
40.1724,1.6464,1
40.1725,1.6432,1
40.1725,1.6407,1
40.1725,1.6391,1
40.1725,1.6399,1
40.1725,1.6415,1
40.1725,1.6423,1
40.1726,1.6488,1
40.1726,1.6536,1
40.1726,1.6560,1
40.1726,1.6818,1
40.1726,1.6818,1
40.1726,1.6818,1
40.1726,1.6786,1
40.1727,1.6762,1
40.1727,1.6705,1
40.1727,1.6673,1
40.1727,1.6601,1
40.1727,1.6536,1
40.1727,1.6504,1
40.1727,1.6262,1
40.1728,1.6286,1
40.1728,1.6319,1
40.1728,1.6351,1
40.1728,1.6383,1
40.1728,1.6448,1
40.1728,1.6512,1
40.1729,1.6560,1
40.1729,1.6617,1
40.1729,1.6657,1
40.1729,1.6681,1
40.1729,1.6689,1
40.1729,1.6681,1
40.1730,1.6681,1
40.1730,1.6681,1
40.1730,1.6649,1
40.1730,1.6601,1
40.1730,1.6568,1
40.1730,1.6544,1
40.1731,1.6488,1
40.1731,1.6456,1
40.1731,1.6407,1
40.1731,1.6391,1
40.1731,1.6367,1
40.1731,1.6359,1
40.1731,1.6375,1
40.1732,1.6415,1
40.1732,1.6464,1
40.1732,1.6488,1
40.1732,1.6544,1
40.1732,1.6577,1
40.1732,1.6625,1
40.1733,1.6633,1
40.1733,1.6633,1
40.1733,1.6649,1
40.1733,1.6609,1
40.1733,1.6560,1
40.1733,1.6504,1
40.1733,1.6456,1
40.1734,1.6423,1
40.1734,1.6399,1
40.1734,1.6391,1
40.1734,1.6407,1
40.1734,1.6423,1
40.1734,1.6415,1
40.1735,1.6464,1
40.1735,1.6496,1
40.1735,1.6544,1
40.1735,1.6568,1
40.1735,1.6609,1
40.1735,1.6633,1
40.1736,1.6641,1
40.1736,1.6641,1
40.1736,1.6641,1
40.1736,1.6633,1
40.1736,1.6625,1
40.1736,1.6609,1
40.1736,1.6577,1
40.1737,1.6536,1
40.1737,1.6496,1
40.1737,1.6464,1
40.1737,1.6423,1
40.1737,1.6391,1
40.1737,1.6375,1
40.1738,1.6391,1
40.1738,1.6415,1
40.1738,1.6440,1
40.1738,1.6480,1
40.1738,1.6528,1
40.1738,1.6568,1
40.1738,1.6593,1
40.1739,1.6633,1
40.1739,1.6657,1
40.1739,1.6649,1
40.1739,1.6617,1
40.1739,1.6560,1
40.1739,1.6512,1
40.2307,1.6464,1
40.2308,1.6415,1
40.2308,1.6375,1
40.2308,1.6367,1
40.2308,1.6351,1
40.2308,1.6359,1
40.2308,1.6375,1
40.2309,1.6399,1
40.2309,1.6440,1
40.2309,1.6472,1
40.2309,1.6512,1
40.2309,1.6544,1
40.2310,1.6577,1
40.2310,1.6593,1
40.2310,1.6601,1
40.2310,1.6601,1
40.2310,1.6601,1
40.2310,1.6593,1
40.2311,1.6585,1
40.2311,1.6568,1
40.2311,1.6536,1
40.2311,1.6504,1
40.2311,1.6472,1
40.2311,1.6423,1
40.2311,1.6399,1
40.2312,1.6383,1
40.2312,1.6375,1
40.2312,1.6383,1
40.2312,1.6399,1
40.2312,1.6432,1
40.2312,1.6472,1
40.2313,1.6520,1
40.2313,1.6560,1
40.2313,1.6609,1
40.2313,1.6641,1
40.2313,1.6657,1
40.2313,1.6657,1
40.2313,1.6633,1
40.2314,1.6577,1
40.2314,1.6528,1
40.2314,1.6488,1
40.2314,1.6440,1
40.2314,1.6407,1
40.2315,1.6367,1
40.2315,1.6351,1
40.2315,1.6343,1
40.2315,1.6367,1
40.2315,1.6391,1
40.2315,1.6423,1
40.2316,1.6464,1
40.2316,1.6488,1
40.2316,1.6528,1
40.2316,1.6552,1
40.2316,1.6577,1
40.2316,1.6593,1
40.2316,1.6609,1
40.2317,1.6601,1
40.2317,1.6593,1
40.2317,1.6593,1
40.2317,1.6568,1
40.2317,1.6536,1
40.2317,1.6480,1
40.2318,1.6440,1
40.2318,1.6407,1
40.2318,1.6375,1
40.2318,1.6351,1
40.2318,1.6335,1
40.2318,1.6343,1
40.2318,1.6351,1
40.2319,1.6375,1
40.2319,1.6432,1
40.2319,1.6504,1
40.2319,1.6552,1
40.2319,1.6593,1
40.2319,1.6633,1
40.2320,1.6641,1
40.2320,1.6641,1
40.2320,1.6617,1
40.2320,1.6577,1
40.2320,1.6520,1
40.2320,1.6464,1
40.2321,1.6407,1
40.2321,1.6359,1
40.2321,1.6335,1
40.2321,1.6327,1
40.2321,1.6319,1
40.2321,1.6335,1
40.2321,1.6367,1
40.2322,1.6399,1
40.2322,1.6440,1
40.2322,1.6448,1
40.2322,1.6488,1
40.2322,1.6528,1
40.2322,1.6528,1
40.2323,1.6528,1
40.2323,1.6536,1
40.2323,1.6536,1
40.2323,1.6528,1
40.2323,1.6520,1
40.2323,1.6504,1
40.2323,1.6488,1
40.2324,1.6456,1
40.2324,1.6415,1
40.2324,1.6399,1
40.2324,1.6383,1
40.2324,1.6367,1
40.2324,1.6351,1
40.2325,1.6351,1
40.2325,1.6375,1
40.2325,1.6415,1
40.2325,1.6456,1
40.2325,1.6512,1
40.2325,1.6552,1
40.2326,1.6601,1
40.2326,1.6633,1
40.2326,1.6649,1
40.2326,1.6657,1
40.2326,1.6633,1
40.2893,1.6593,1
40.2893,1.6536,1
40.2893,1.6504,1
40.2894,1.6456,1
40.2894,1.6415,1
40.2894,1.6383,1
40.2894,1.6359,1
40.2894,1.6375,1
40.2894,1.6383,1
40.2895,1.6407,1
40.2895,1.6448,1
40.2895,1.6496,1
40.2895,1.6528,1
40.2895,1.6560,1
40.2895,1.6593,1
40.2895,1.6609,1
40.2896,1.6625,1
40.2896,1.6625,1
40.2896,1.6633,1
40.2896,1.6633,1
40.2896,1.6617,1
40.2896,1.6585,1
40.2897,1.6560,1
40.2897,1.6512,1
40.2897,1.6480,1
40.2897,1.6448,1
40.2897,1.6423,1
40.2897,1.6399,1
40.2897,1.6375,1
40.2898,1.6383,1
40.2898,1.6407,1
40.2898,1.6440,1
40.2898,1.6488,1
40.2898,1.6536,1
40.2898,1.6681,1
40.2899,1.6754,1
40.2899,1.6762,1
40.2899,1.6770,1
40.2899,1.6754,1
40.2899,1.6730,1
40.2899,1.6673,1
40.2900,1.6617,1
40.2900,1.6528,1
40.2900,1.6295,1
40.2900,1.6190,1
40.2900,1.6158,1
40.2900,1.6182,1
40.2901,1.6214,1
40.2901,1.6254,1
40.2901,1.6295,1
40.2901,1.6367,1
40.2901,1.6415,1
40.2901,1.6496,1
40.2901,1.6722,1
40.2902,1.6730,1
40.2902,1.6722,1
40.2902,1.6705,1
40.2902,1.6689,1
40.2902,1.6673,1
40.2902,1.6649,1
40.2903,1.6601,1
40.2903,1.6568,1
40.2903,1.6528,1
40.2903,1.6480,1
40.2903,1.6464,1
40.2903,1.6520,1
40.2903,1.6464,1
40.2904,1.6440,1
40.2904,1.6423,1
40.2904,1.6415,1
40.2904,1.6440,1
40.2904,1.6472,1
40.2905,1.6520,1
40.2905,1.6577,1
40.2905,1.6609,1
40.2905,1.6568,1
40.2906,1.6633,1
40.2906,1.6673,1
40.2906,1.6697,1
40.2906,1.6697,1
40.2906,1.6673,1
40.2906,1.6746,1
40.2907,1.6689,1
40.2907,1.6641,1
40.2907,1.6593,1
40.2907,1.6625,1
40.2907,1.6601,1
40.2907,1.6568,1
40.2907,1.6568,1
40.2908,1.6617,1
40.2908,1.6641,1
40.2908,1.6568,1
40.2908,1.6609,1
40.2908,1.6641,1
40.2908,1.6673,1
40.2909,1.6633,1
40.2909,1.6657,1
40.2909,1.6665,1
40.2909,1.6665,1
40.2909,1.6625,1
40.2909,1.6617,1
40.2910,1.6601,1
40.2910,1.6577,1
40.2910,1.6544,1
40.2910,1.6512,1
40.2910,1.6472,1
40.2910,1.6440,1
40.2911,1.6415,1
40.2911,1.6391,1
40.2911,1.6407,1
40.2911,1.6415,1
40.2911,1.6448,1
40.2911,1.6488,1
40.2911,1.6536,1
40.2912,1.6577,1
40.2912,1.6609,1
40.2912,1.6641,1
40.3477,1.6657,1
40.3478,1.6665,1
40.3478,1.6625,1
40.3478,1.6585,1
40.3478,1.6544,1
40.3478,1.6488,1
40.3479,1.6423,1
40.3479,1.6375,1
40.3479,1.6359,1
40.3479,1.6343,1
40.3479,1.6335,1
40.3479,1.6351,1
40.3479,1.6351,1
40.3480,1.6456,1
40.3480,1.6472,1
40.3480,1.6504,1
40.3480,1.6536,1
40.3480,1.6577,1
40.3480,1.6593,1
40.3480,1.6601,1
40.3481,1.6609,1
40.3481,1.6609,1
40.3481,1.6641,1
40.3481,1.6560,1
40.3481,1.6544,1
40.3481,1.6536,1
40.3482,1.6504,1
40.3482,1.6472,1
40.3482,1.6440,1
40.3482,1.6415,1
40.3482,1.6391,1
40.3482,1.6391,1
40.3482,1.6383,1
40.3483,1.6399,1
40.3483,1.6432,1
40.3483,1.6480,1
40.3483,1.6520,1
40.3483,1.6577,1
40.3483,1.6617,1
40.3484,1.6641,1
40.3484,1.6657,1
40.3484,1.6657,1
40.3484,1.6625,1
40.3484,1.6641,1
40.3484,1.6593,1
40.3485,1.6528,1
40.3485,1.6472,1
40.3485,1.6432,1
40.3485,1.6399,1
40.3485,1.6295,1
40.3485,1.6303,1
40.3485,1.6238,1
40.3486,1.6286,1
40.3486,1.6198,1
40.3486,1.6246,1
40.3486,1.6311,1
40.3486,1.6359,1
40.3486,1.6367,1
40.3487,1.6407,1
40.3487,1.6512,1
40.3487,1.6520,1
40.3487,1.6601,1
40.3487,1.6585,1
40.3487,1.6649,1
40.3487,1.6601,1
40.3488,1.6432,1
40.3488,1.6367,1
40.3488,1.6359,1
40.3488,1.6311,1
40.3488,1.6278,1
40.3488,1.6230,1
40.3489,1.5996,1
40.3489,1.6029,1
40.3489,1.6045,1
40.3489,1.6101,1
40.3489,1.6319,1
40.3489,1.6367,1
40.3490,1.6448,1
40.3490,1.6472,1
40.3490,1.6480,1
40.3490,1.6504,1
40.3490,1.6705,1
40.3490,1.6665,1
40.3490,1.6697,1
40.3491,1.6609,1
40.3491,1.6496,1
40.3491,1.6448,1
40.3491,1.6367,1
40.3491,1.6335,1
40.3491,1.6311,1
40.3492,1.6021,1
40.3492,1.6158,1
40.3492,1.6198,1
40.3492,1.6141,1
40.3492,1.6222,1
40.3492,1.6311,1
40.3492,1.6375,1
40.3493,1.6423,1
40.3493,1.6464,1
40.3493,1.6512,1
40.3493,1.6794,1
40.3493,1.6689,1
40.3493,1.6665,1
40.3493,1.6601,1
40.3494,1.6577,1
40.3494,1.6504,1
40.3494,1.6464,1
40.3494,1.6480,1
40.3494,1.6440,1
40.3495,1.6383,1
40.3495,1.6375,1
40.3495,1.6351,1
40.3495,1.6343,1
40.3495,1.6375,1
40.3495,1.6375,1
40.3495,1.6432,1
40.3496,1.6480,1
40.4061,1.6464,1
40.4061,1.6520,1
40.4061,1.6568,1
40.4061,1.6585,1
40.4061,1.6593,1
40.4062,1.6593,1
40.4062,1.6601,1
40.4062,1.6560,1
40.4062,1.6496,1
40.4062,1.6456,1
40.4062,1.6423,1
40.4063,1.6399,1
40.4063,1.6391,1
40.4063,1.6399,1
40.4063,1.6407,1
40.4063,1.6432,1
40.4063,1.6472,1
40.4063,1.6520,1
40.4064,1.6552,1
40.4064,1.6593,1
40.4064,1.6609,1
40.4064,1.6625,1
40.4064,1.6657,1
40.4065,1.6657,1
40.4065,1.6625,1
40.4065,1.6609,1
40.4065,1.6560,1
40.4065,1.6536,1
40.4065,1.6504,1
40.4065,1.6464,1
40.4066,1.6407,1
40.4066,1.6375,1
40.4066,1.6351,1
40.4066,1.6327,1
40.4066,1.6359,1
40.4066,1.6351,1
40.4067,1.6399,1
40.4067,1.6423,1
40.4067,1.6520,1
40.4067,1.6560,1
40.4067,1.6601,1
40.4067,1.6633,1
40.4067,1.6641,1
40.4068,1.6657,1
40.4068,1.6641,1
40.4068,1.6649,1
40.4068,1.6633,1
40.4068,1.6585,1
40.4068,1.6472,1
40.4068,1.6423,1
40.4069,1.6423,1
40.4069,1.6399,1
40.4069,1.6359,1
40.4069,1.6359,1
40.4069,1.6351,1
40.4070,1.6367,1
40.4070,1.6399,1
40.4070,1.6440,1
40.4070,1.6480,1
40.4070,1.6512,1
40.4070,1.6552,1
40.4070,1.6568,1
40.4071,1.6617,1
40.4071,1.6617,1
40.4071,1.6649,1
40.4071,1.6657,1
40.4071,1.6617,1
40.4071,1.6593,1
40.4072,1.6520,1
40.4072,1.6488,1
40.4072,1.6440,1
40.4072,1.6432,1
40.4072,1.6391,1
40.4072,1.6359,1
40.4072,1.6327,1
40.4073,1.6319,1
40.4073,1.6367,1
40.4073,1.6391,1
40.4073,1.6448,1
40.4073,1.6488,1
40.4073,1.6544,1
40.4074,1.6560,1
40.4074,1.6609,1
40.4074,1.6625,1
40.4074,1.6633,1
40.4074,1.6609,1
40.4074,1.6488,1
40.4075,1.6456,1
40.4075,1.6440,1
40.4075,1.6391,1
40.4075,1.6343,1
40.4075,1.6327,1
40.4075,1.6311,1
40.4075,1.6335,1
40.4076,1.6359,1
40.4076,1.6375,1
40.4076,1.6464,1
40.4076,1.6504,1
40.4076,1.6528,1
40.4076,1.6625,1
40.4077,1.6641,1
40.4077,1.6625,1
40.4077,1.6633,1
40.4077,1.6609,1
40.4077,1.6593,1
40.4077,1.6593,1
40.4077,1.6585,1
40.4078,1.6536,1
40.4078,1.6520,1
40.4078,1.6423,1
40.4078,1.6399,1
40.4078,1.6383,1
40.4078,1.6359,1
40.4078,1.6367,1
40.4079,1.6351,1
40.4079,1.6359,1
40.4643,1.6415,1
40.4643,1.6464,1
40.4644,1.6512,1
40.4644,1.6560,1
40.4644,1.6609,1
40.4644,1.6673,1
40.4644,1.6705,1
40.4644,1.6689,1
40.4645,1.6689,1
40.4645,1.6657,1
40.4645,1.6577,1
40.4645,1.6536,1
40.4645,1.6488,1
40.4645,1.6440,1
40.4646,1.6391,1
40.4646,1.6335,1
40.4646,1.6335,1
40.4646,1.6351,1
40.4646,1.6367,1
40.4646,1.6391,1
40.4646,1.6432,1
40.4647,1.6464,1
40.4647,1.6496,1
40.4647,1.6528,1
40.4647,1.6552,1
40.4647,1.6568,1
40.4647,1.6585,1
40.4648,1.6593,1
40.4648,1.6585,1
40.4648,1.6585,1
40.4648,1.6568,1
40.4648,1.6552,1
40.4648,1.6528,1
40.4648,1.6496,1
40.4649,1.6464,1
40.4649,1.6432,1
40.4649,1.6391,1
40.4649,1.6311,1
40.4649,1.6311,1
40.4650,1.6415,1
40.4650,1.6415,1
40.4650,1.6448,1
40.4650,1.6488,1
40.4650,1.6544,1
40.4650,1.6585,1
40.4650,1.6625,1
40.4651,1.6649,1
40.4651,1.6738,1
40.4651,1.6746,1
40.4651,1.6617,1
40.4651,1.6625,1
40.4651,1.6520,1
40.4652,1.6464,1
40.4652,1.6423,1
40.4652,1.6391,1
40.4652,1.6319,1
40.4652,1.6327,1
40.4652,1.6319,1
40.4652,1.6327,1
40.4653,1.6359,1
40.4653,1.6375,1
40.4653,1.6464,1
40.4653,1.6496,1
40.4653,1.6528,1
40.4653,1.6552,1
40.4654,1.6625,1
40.4654,1.6633,1
40.4654,1.6633,1
40.4654,1.6625,1
40.4654,1.6609,1
40.4654,1.6585,1
40.4655,1.6568,1
40.4655,1.6544,1
40.4655,1.6335,1
40.4655,1.6319,1
40.4655,1.6286,1
40.4655,1.6254,1
40.4656,1.6230,1
40.4656,1.6246,1
40.4656,1.6246,1
40.4656,1.6286,1
40.4656,1.6319,1
40.4656,1.6359,1
40.4656,1.6504,1
40.4657,1.6568,1
40.4657,1.6617,1
40.4657,1.6633,1
40.4657,1.6649,1
40.4657,1.6633,1
40.4657,1.6617,1
40.4657,1.6552,1
40.4658,1.6512,1
40.4658,1.6456,1
40.4658,1.6472,1
40.4658,1.6399,1
40.4658,1.6359,1
40.4658,1.6351,1
40.4659,1.6343,1
40.4659,1.6359,1
40.4659,1.6399,1
40.4659,1.6432,1
40.4659,1.6448,1
40.4659,1.6488,1
40.4660,1.6528,1
40.4660,1.6568,1
40.4660,1.6601,1
40.4660,1.6601,1
40.4660,1.6617,1
40.4660,1.6601,1
40.4661,1.6585,1
40.4661,1.6601,1
40.4661,1.6601,1
40.4661,1.6577,1
40.4661,1.6560,1
40.4661,1.6520,1
40.4662,1.6480,1
40.4662,1.6464,1
40.5226,1.6432,1
40.5226,1.6423,1
40.5226,1.6415,1
40.5226,1.6407,1
40.5226,1.6440,1
40.5227,1.6480,1
40.5227,1.6512,1
40.5227,1.6568,1
40.5227,1.6617,1
40.5227,1.6657,1
40.5227,1.6681,1
40.5228,1.6681,1
40.5228,1.6657,1
40.5228,1.6617,1
40.5228,1.6560,1
40.5228,1.6496,1
40.5228,1.6440,1
40.5228,1.6391,1
40.5229,1.6359,1
40.5229,1.6335,1
40.5229,1.6319,1
40.5229,1.6335,1
40.5229,1.6359,1
40.5229,1.6399,1
40.5230,1.6440,1
40.5230,1.6488,1
40.5230,1.6528,1
40.5230,1.6560,1
40.5230,1.6585,1
40.5230,1.6601,1
40.5231,1.6625,1
40.5231,1.6633,1
40.5231,1.6625,1
40.5231,1.6625,1
40.5231,1.6601,1
40.5231,1.6568,1
40.5231,1.6528,1
40.5232,1.6488,1
40.5232,1.6456,1
40.5232,1.6415,1
40.5232,1.6383,1
40.5232,1.6359,1
40.5232,1.6359,1
40.5233,1.6375,1
40.5233,1.6415,1
40.5233,1.6464,1
40.5233,1.6512,1
40.5233,1.6568,1
40.5233,1.6601,1
40.5234,1.6641,1
40.5234,1.6673,1
40.5234,1.6665,1
40.5234,1.6649,1
40.5234,1.6609,1
40.5234,1.6552,1
40.5235,1.6496,1
40.5235,1.6448,1
40.5235,1.6407,1
40.5235,1.6391,1
40.5235,1.6375,1
40.5235,1.6375,1
40.5235,1.6391,1
40.5236,1.6423,1
40.5236,1.6456,1
40.5236,1.6496,1
40.5236,1.6536,1
40.5236,1.6560,1
40.5236,1.6577,1
40.5237,1.6585,1
40.5237,1.6585,1
40.5237,1.6585,1
40.5237,1.6585,1
40.5237,1.6568,1
40.5237,1.6560,1
40.5237,1.6544,1
40.5238,1.6520,1
40.5238,1.6504,1
40.5238,1.6480,1
40.5238,1.6440,1
40.5238,1.6407,1
40.5238,1.6383,1
40.5239,1.6367,1
40.5239,1.6359,1
40.5239,1.6375,1
40.5239,1.6399,1
40.5239,1.6440,1
40.5239,1.6472,1
40.5240,1.6528,1
40.5240,1.6577,1
40.5240,1.6633,1
40.5240,1.6649,1
40.5240,1.6649,1
40.5240,1.6641,1
40.5240,1.6617,1
40.5241,1.6568,1
40.5241,1.6512,1
40.5241,1.6464,1
40.5241,1.6423,1
40.5241,1.6391,1
40.5241,1.6375,1
40.5242,1.6383,1
40.5242,1.6407,1
40.5242,1.6423,1
40.5242,1.6448,1
40.5242,1.6488,1
40.5242,1.6536,1
40.5242,1.6560,1
40.5243,1.6585,1
40.5243,1.6609,1
40.5243,1.6609,1
40.5243,1.6609,1
40.5243,1.6601,1
40.5243,1.6593,1
40.5243,1.6577,1
40.5244,1.6560,1
40.5244,1.6528,1
40.5806,1.6496,1
40.5806,1.6464,1
40.5806,1.6423,1
40.5806,1.6399,1
40.5806,1.6383,1
40.5806,1.6375,1
40.5807,1.6375,1
40.5807,1.6383,1
40.5807,1.6423,1
40.5807,1.6464,1
40.5807,1.6512,1
40.5807,1.6560,1
40.5807,1.6609,1
40.5808,1.6649,1
40.5808,1.6649,1
40.5808,1.6649,1
40.5808,1.6641,1
40.5808,1.6601,1
40.5808,1.6536,1
40.5809,1.6488,1
40.5809,1.6440,1
40.5809,1.6383,1
40.5809,1.6343,1
40.5809,1.6319,1
40.5809,1.6327,1
40.5810,1.6335,1
40.5810,1.6351,1
40.5810,1.6383,1
40.5810,1.6423,1
40.5810,1.6464,1
40.5810,1.6504,1
40.5810,1.6536,1
40.5811,1.6552,1
40.5811,1.6552,1
40.5811,1.6577,1
40.5811,1.6577,1
40.5811,1.6577,1
40.5811,1.6560,1
40.5812,1.6544,1
40.5812,1.6512,1
40.5812,1.6488,1
40.5812,1.6448,1
40.5812,1.6423,1
40.5812,1.6399,1
40.5812,1.6359,1
40.5813,1.6351,1
40.5813,1.6351,1
40.5813,1.6375,1
40.5813,1.6407,1
40.5813,1.6456,1
40.5813,1.6504,1
40.5813,1.6552,1
40.5814,1.6593,1
40.5814,1.6625,1
40.5814,1.6633,1
40.5814,1.6633,1
40.5814,1.6609,1
40.5815,1.6577,1
40.5815,1.6520,1
40.5815,1.6464,1
40.5815,1.6423,1
40.5815,1.6375,1
40.5815,1.6359,1
40.5815,1.6343,1
40.5816,1.6343,1
40.5816,1.6367,1
40.5816,1.6399,1
40.5816,1.6432,1
40.5816,1.6391,1
40.5816,1.6432,1
40.5817,1.6464,1
40.5817,1.6496,1
40.5817,1.6512,1
40.5817,1.6536,1
40.5817,1.6544,1
40.5817,1.6536,1
40.5817,1.6464,1
40.5818,1.6448,1
40.5818,1.6520,1
40.5818,1.6488,1
40.5818,1.6440,1
40.5818,1.6407,1
40.5818,1.6383,1
40.5819,1.6343,1
40.5819,1.6311,1
40.5819,1.6303,1
40.5819,1.6359,1
40.5819,1.6367,1
40.5819,1.6391,1
40.5820,1.6432,1
40.5820,1.6480,1
40.5820,1.6520,1
40.5820,1.6552,1
40.5820,1.6593,1
40.5820,1.6617,1
40.5820,1.6617,1
40.5821,1.6593,1
40.5821,1.6568,1
40.5821,1.6528,1
40.5821,1.6480,1
40.5821,1.6432,1
40.5821,1.6407,1
40.5822,1.6472,1
40.5822,1.6423,1
40.5822,1.6423,1
40.5822,1.6432,1
40.5822,1.6464,1
40.5822,1.6496,1
40.5822,1.6528,1
40.5823,1.6568,1
40.5823,1.6593,1
40.5823,1.6617,1
40.5823,1.6560,1
40.5823,1.6609,1
40.5823,1.6617,1
40.5824,1.6625,1
40.6379,1.6625,1
40.6379,1.6633,1
40.6379,1.6609,1
40.6379,1.6593,1
40.6379,1.6577,1
40.6380,1.6544,1
40.6380,1.6504,1
40.6380,1.6472,1
40.6380,1.6456,1
40.6380,1.6440,1
40.6381,1.6432,1
40.6381,1.6440,1
40.6381,1.6464,1
40.6381,1.6504,1
40.6381,1.6552,1
40.6381,1.6577,1
40.6381,1.6609,1
40.6382,1.6641,1
40.6382,1.6657,1
40.6382,1.6657,1
40.6382,1.6649,1
40.6382,1.6609,1
40.6382,1.6552,1
40.6383,1.6496,1
40.6383,1.6440,1
40.6383,1.6399,1
40.6383,1.6383,1
40.6383,1.6359,1
40.6383,1.6351,1
40.6384,1.6359,1
40.6384,1.6399,1
40.6384,1.6432,1
40.6384,1.6472,1
40.6384,1.6456,1
40.6385,1.6504,1
40.6385,1.6536,1
40.6385,1.6568,1
40.6385,1.6585,1
40.6385,1.6601,1
40.6385,1.6601,1
40.6385,1.6560,1
40.6386,1.6560,1
40.6386,1.6552,1
40.6386,1.6577,1
40.6386,1.6528,1
40.6386,1.6488,1
40.6386,1.6488,1
40.6387,1.6456,1
40.6387,1.6448,1
40.6387,1.6456,1
40.6387,1.6423,1
40.6387,1.6423,1
40.6387,1.6464,1
40.6388,1.6504,1
40.6388,1.6552,1
40.6388,1.6609,1
40.6388,1.6609,1
40.6388,1.6649,1
40.6388,1.6593,1
40.6388,1.6585,1
40.6389,1.6633,1
40.6389,1.6601,1
40.6389,1.6440,1
40.6389,1.6407,1
40.6389,1.6367,1
40.6390,1.6343,1
40.6390,1.6311,1
40.6390,1.6303,1
40.6390,1.6351,1
40.6390,1.6359,1
40.6390,1.6415,1
40.6390,1.6448,1
40.6391,1.6577,1
40.6391,1.6593,1
40.6391,1.6577,1
40.6391,1.6609,1
40.6391,1.6649,1
40.6391,1.6641,1
40.6392,1.6746,1
40.6392,1.6722,1
40.6392,1.6657,1
40.6392,1.6625,1
40.6392,1.6593,1
40.6392,1.6560,1
40.6393,1.6560,1
40.6393,1.6496,1
40.6393,1.6440,1
40.6393,1.6407,1
40.6393,1.6278,1
40.6393,1.6278,1
40.6393,1.6303,1
40.6394,1.6335,1
40.6394,1.6399,1
40.6394,1.6456,1
40.6394,1.6528,1
40.6394,1.6601,1
40.6395,1.6657,1
40.6395,1.6705,1
40.6395,1.6738,1
40.6395,1.6859,1
40.6395,1.6826,1
40.6395,1.6778,1
40.6395,1.6714,1
40.6396,1.6649,1
40.6396,1.6585,1
40.6396,1.6560,1
40.6396,1.6520,1
40.6396,1.6496,1
40.6396,1.6488,1
40.6397,1.6375,1
40.6397,1.6391,1
40.6397,1.6415,1
40.6397,1.6456,1
40.6397,1.6536,1
40.6397,1.6577,1
40.6967,1.6738,1
40.6967,1.6762,1
40.6967,1.6754,1
40.6967,1.6746,1
40.6968,1.6762,1
40.6968,1.6770,1
40.6968,1.6722,1
40.6968,1.6705,1
40.6968,1.6641,1
40.6968,1.6609,1
40.6969,1.6440,1
40.6969,1.6399,1
40.6969,1.6391,1
40.6969,1.6391,1
40.6969,1.6375,1
40.6969,1.6391,1
40.6970,1.6464,1
40.6970,1.6504,1
40.6970,1.6552,1
40.6970,1.6617,1
40.6970,1.6649,1
40.6970,1.6689,1
40.6971,1.6738,1
40.6971,1.6762,1
40.6971,1.6673,1
40.6971,1.6657,1
40.6971,1.6689,1
40.6972,1.6641,1
40.6972,1.6552,1
40.6972,1.6488,1
40.6972,1.6423,1
40.6972,1.6383,1
40.6972,1.6383,1
40.6972,1.6367,1
40.6973,1.6456,1
40.6973,1.6456,1
40.6973,1.6407,1
40.6973,1.6432,1
40.6973,1.6480,1
40.6973,1.6601,1
40.6974,1.6625,1
40.6974,1.6641,1
40.6974,1.6617,1
40.6974,1.6633,1
40.6974,1.6633,1
40.6974,1.6625,1
40.6975,1.6609,1
40.6975,1.6601,1
40.6975,1.6544,1
40.6975,1.6432,1
40.6975,1.6423,1
40.6976,1.6399,1
40.6976,1.6456,1
40.6976,1.6432,1
40.6976,1.6423,1
40.6976,1.6423,1
40.6976,1.6440,1
40.6976,1.6472,1
40.6977,1.6601,1
40.6977,1.6641,1
40.6977,1.6681,1
40.6977,1.6730,1
40.6977,1.6617,1
40.6977,1.6649,1
40.6978,1.6601,1
40.6978,1.6593,1
40.6978,1.6585,1
40.6978,1.6544,1
40.6978,1.6464,1
40.6978,1.6423,1
40.6978,1.6383,1
40.6979,1.6343,1
40.6979,1.6391,1
40.6979,1.6383,1
40.6979,1.6415,1
40.6979,1.6423,1
40.6980,1.6448,1
40.6980,1.6480,1
40.6980,1.6577,1
40.6980,1.6593,1
40.6980,1.6609,1
40.6980,1.6609,1
40.6980,1.6633,1
40.6981,1.6625,1
40.6981,1.6633,1
40.6981,1.6625,1
40.6981,1.6609,1
40.6981,1.6568,1
40.6981,1.6472,1
40.6982,1.6432,1
40.6982,1.6407,1
40.6982,1.6375,1
40.6982,1.6351,1
40.6982,1.6335,1
40.6983,1.6343,1
40.6983,1.6343,1
40.6983,1.6383,1
40.6983,1.6432,1
40.6983,1.6472,1
40.6983,1.6544,1
40.6984,1.6593,1
40.6984,1.6641,1
40.6984,1.6641,1
40.6984,1.6665,1
40.6984,1.6665,1
40.6984,1.6665,1
40.6985,1.6617,1
40.6985,1.6568,1
40.6985,1.6520,1
40.6985,1.6456,1
40.6985,1.6415,1
40.6985,1.6391,1
40.6986,1.6375,1
40.6986,1.6367,1
40.6986,1.6448,1
40.6986,1.6456,1
40.6986,1.6496,1
40.6986,1.6512,1
40.7554,1.6577,1
40.7554,1.6609,1
40.7555,1.6641,1
40.7555,1.6665,1
40.7555,1.6673,1
40.7555,1.6665,1
40.7555,1.6544,1
40.7555,1.6552,1
40.7556,1.6544,1
40.7556,1.6552,1
40.7556,1.6496,1
40.7556,1.6496,1
40.7556,1.6407,1
40.7556,1.6391,1
40.7556,1.6367,1
40.7557,1.6367,1
40.7557,1.6504,1
40.7557,1.6488,1
40.7557,1.6488,1
40.7557,1.6504,1
40.7557,1.6552,1
40.7558,1.6577,1
40.7558,1.6649,1
40.7558,1.6681,1
40.7558,1.6689,1
40.7558,1.6705,1
40.7558,1.6609,1
40.7559,1.6601,1
40.7559,1.6536,1
40.7559,1.6496,1
40.7559,1.6432,1
40.7559,1.6391,1
40.7559,1.6270,1
40.7560,1.6262,1
40.7560,1.6286,1
40.7560,1.6270,1
40.7560,1.6327,1
40.7560,1.6343,1
40.7560,1.6222,1
40.7560,1.6278,1
40.7561,1.6311,1
40.7561,1.6351,1
40.7561,1.6480,1
40.7561,1.6496,1
40.7561,1.6496,1
40.7561,1.6496,1
40.7562,1.6456,1
40.7562,1.6456,1
40.7562,1.6625,1
40.7562,1.6568,1
40.7562,1.6512,1
40.7562,1.6440,1
40.7563,1.6399,1
40.7563,1.6343,1
40.7563,1.6303,1
40.7563,1.6295,1
40.7563,1.6278,1
40.7563,1.6262,1
40.7563,1.6278,1
40.7564,1.6311,1
40.7564,1.6359,1
40.7564,1.6432,1
40.7564,1.6504,1
40.7564,1.6544,1
40.7565,1.6585,1
40.7565,1.6601,1
40.7565,1.6633,1
40.7565,1.6625,1
40.7565,1.6593,1
40.7565,1.6560,1
40.7565,1.6504,1
40.7566,1.6472,1
40.7566,1.6415,1
40.7566,1.6407,1
40.7566,1.6399,1
40.7566,1.6399,1
40.7566,1.6351,1
40.7567,1.6391,1
40.7567,1.6432,1
40.7567,1.6480,1
40.7567,1.6528,1
40.7567,1.6552,1
40.7567,1.6601,1
40.7567,1.6617,1
40.7568,1.6609,1
40.7568,1.6617,1
40.7568,1.6633,1
40.7568,1.6617,1
40.7568,1.6609,1
40.7568,1.6577,1
40.7569,1.6536,1
40.7569,1.6512,1
40.7569,1.6448,1
40.7569,1.6383,1
40.7569,1.6359,1
40.7570,1.6327,1
40.7570,1.6327,1
40.7570,1.6319,1
40.7570,1.6319,1
40.7570,1.6351,1
40.7570,1.6399,1
40.7570,1.6464,1
40.7571,1.6528,1
40.7571,1.6617,1
40.7571,1.6649,1
40.7571,1.6673,1
40.7571,1.6673,1
40.7571,1.6649,1
40.7572,1.6609,1
40.7572,1.6552,1
40.7572,1.6528,1
40.7572,1.6448,1
40.7572,1.6423,1
40.7572,1.6367,1
40.7572,1.6343,1
40.7573,1.6343,1
40.7573,1.6367,1
40.8141,1.6391,1
40.8142,1.6432,1
40.8142,1.6456,1
40.8142,1.6464,1
40.8142,1.6496,1
40.8142,1.6520,1
40.8143,1.6552,1
40.8143,1.6585,1
40.8143,1.6593,1
40.8143,1.6593,1
40.8143,1.6568,1
40.8143,1.6568,1
40.8143,1.6746,1
40.8144,1.6705,1
40.8144,1.6665,1
40.8144,1.6609,1
40.8144,1.6560,1
40.8144,1.6520,1
40.8145,1.6440,1
40.8145,1.6423,1
40.8145,1.6448,1
40.8145,1.6448,1
40.8145,1.6295,1
40.8145,1.6375,1
40.8146,1.6448,1
40.8146,1.6520,1
40.8146,1.6577,1
40.8146,1.6625,1
40.8146,1.6705,1
40.8146,1.6722,1
40.8147,1.6705,1
40.8147,1.6673,1
40.8147,1.6625,1
40.8147,1.6552,1
40.8147,1.6504,1
40.8147,1.6456,1
40.8147,1.6423,1
40.8148,1.6399,1
40.8148,1.6456,1
40.8148,1.6456,1
40.8148,1.6407,1
40.8148,1.6440,1
40.8148,1.6415,1
40.8149,1.6464,1
40.8149,1.6496,1
40.8149,1.6528,1
40.8149,1.6536,1
40.8149,1.6560,1
40.8149,1.6496,1
40.8150,1.6504,1
40.8150,1.6552,1
40.8150,1.6536,1
40.8150,1.6585,1
40.8150,1.6544,1
40.8150,1.6504,1
40.8151,1.6464,1
40.8151,1.6432,1
40.8151,1.6399,1
40.8151,1.6375,1
40.8151,1.6343,1
40.8151,1.6440,1
40.8151,1.6440,1
40.8152,1.6464,1
40.8152,1.6504,1
40.8152,1.6536,1
40.8152,1.6593,1
40.8152,1.6641,1
40.8152,1.6665,1
40.8153,1.6689,1
40.8153,1.6697,1
40.8153,1.6601,1
40.8153,1.6585,1
40.8153,1.6552,1
40.8153,1.6504,1
40.8154,1.6464,1
40.8154,1.6423,1
40.8154,1.6423,1
40.8154,1.6423,1
40.8154,1.6432,1
40.8154,1.6440,1
40.8155,1.6464,1
40.8155,1.6504,1
40.8155,1.6536,1
40.8155,1.6568,1
40.8155,1.6593,1
40.8155,1.6625,1
40.8156,1.6617,1
40.8156,1.6617,1
40.8156,1.6633,1
40.8156,1.6641,1
40.8156,1.6633,1
40.8156,1.6617,1
40.8156,1.6601,1
40.8157,1.6577,1
40.8157,1.6536,1
40.8157,1.6496,1
40.8157,1.6456,1
40.8157,1.6432,1
40.8157,1.6391,1
40.8158,1.6359,1
40.8158,1.6351,1
40.8158,1.6343,1
40.8158,1.6383,1
40.8158,1.6423,1
40.8158,1.6472,1
40.8158,1.6528,1
40.8159,1.6577,1
40.8159,1.6593,1
40.8159,1.6609,1
40.8159,1.6625,1
40.8159,1.6617,1
40.8160,1.6577,1
40.8160,1.6528,1
40.8160,1.6488,1
40.8160,1.6432,1
40.8160,1.6375,1
40.8160,1.6351,1
40.8160,1.6351,1
40.8727,1.6359,1
40.8727,1.6367,1
40.8727,1.6383,1
40.8727,1.6415,1
40.8727,1.6448,1
40.8727,1.6480,1
40.8728,1.6520,1
40.8728,1.6552,1
40.8728,1.6577,1
40.8728,1.6568,1
40.8728,1.6568,1
40.8728,1.6568,1
40.8729,1.6568,1
40.8729,1.6560,1
40.8729,1.6560,1
40.8729,1.6536,1
40.8729,1.6504,1
40.8729,1.6464,1
40.8730,1.6432,1
40.8730,1.6407,1
40.8730,1.6383,1
40.8730,1.6367,1
40.8730,1.6367,1
40.8730,1.6383,1
40.8731,1.6399,1
40.8731,1.6440,1
40.8731,1.6488,1
40.8731,1.6544,1
40.8731,1.6585,1
40.8731,1.6625,1
40.8731,1.6649,1
40.8732,1.6665,1
40.8732,1.6649,1
40.8732,1.6617,1
40.8732,1.6568,1
40.8732,1.6512,1
40.8732,1.6464,1
40.8733,1.6423,1
40.8733,1.6383,1
40.8733,1.6367,1
40.8733,1.6375,1
40.8733,1.6375,1
40.8733,1.6399,1
40.8734,1.6423,1
40.8734,1.6472,1
40.8734,1.6512,1
40.8734,1.6544,1
40.8734,1.6577,1
40.8734,1.6593,1
40.8735,1.6601,1
40.8735,1.6593,1
40.8735,1.6601,1
40.8735,1.6601,1
40.8735,1.6593,1
40.8735,1.6560,1
40.8736,1.6528,1
40.8736,1.6496,1
40.8736,1.6464,1
40.8736,1.6432,1
40.8736,1.6399,1
40.8736,1.6383,1
40.8736,1.6359,1
40.8737,1.6351,1
40.8737,1.6359,1
40.8737,1.6407,1
40.8737,1.6448,1
40.8737,1.6496,1
40.8737,1.6544,1
40.8738,1.6593,1
40.8738,1.6633,1
40.8738,1.6649,1
40.8738,1.6657,1
40.8738,1.6657,1
40.8738,1.6625,1
40.8738,1.6552,1
40.8739,1.6512,1
40.8739,1.6448,1
40.8739,1.6407,1
40.8739,1.6359,1
40.8739,1.6327,1
40.8739,1.6327,1
40.8740,1.6343,1
40.8740,1.6351,1
40.8740,1.6391,1
40.8740,1.6440,1
40.8740,1.6472,1
40.8740,1.6520,1
40.8741,1.6552,1
40.8741,1.6577,1
40.8741,1.6601,1
40.8741,1.6601,1
40.8741,1.6601,1
40.8741,1.6601,1
40.8741,1.6585,1
40.8742,1.6560,1
40.8742,1.6528,1
40.8742,1.6496,1
40.8742,1.6448,1
40.8742,1.6415,1
40.8742,1.6383,1
40.8743,1.6351,1
40.8743,1.6335,1
40.8743,1.6327,1
40.8743,1.6335,1
40.8743,1.6367,1
40.8743,1.6407,1
40.8744,1.6456,1
40.8744,1.6512,1
40.8744,1.6552,1
40.8744,1.6593,1
40.8744,1.6625,1
40.8744,1.6633,1
40.8745,1.6625,1
40.8745,1.6585,1
40.8745,1.6528,1
40.8745,1.6480,1
40.8745,1.6415,1
40.9313,1.6367,1
40.9313,1.6343,1
40.9313,1.6319,1
40.9313,1.6311,1
40.9313,1.6319,1
40.9313,1.6319,1
40.9314,1.6359,1
40.9314,1.6407,1
40.9314,1.6448,1
40.9314,1.6496,1
40.9314,1.6528,1
40.9314,1.6536,1
40.9314,1.6560,1
40.9315,1.6568,1
40.9315,1.6560,1
40.9315,1.6577,1
40.9315,1.6577,1
40.9315,1.6544,1
40.9316,1.6520,1
40.9316,1.6488,1
40.9316,1.6448,1
40.9316,1.6423,1
40.9316,1.6391,1
40.9316,1.6367,1
40.9316,1.6351,1
40.9316,1.6359,1
40.9317,1.6367,1
40.9317,1.6343,1
40.9317,1.6391,1
40.9317,1.6440,1
40.9317,1.6488,1
40.9317,1.6544,1
40.9317,1.6585,1
40.9318,1.6609,1
40.9318,1.6633,1
40.9318,1.6625,1
40.9318,1.6593,1
40.9318,1.6601,1
40.9318,1.6536,1
40.9318,1.6488,1
40.9319,1.6448,1
40.9319,1.6399,1
40.9319,1.6375,1
40.9319,1.6367,1
40.9319,1.6375,1
40.9320,1.6383,1
40.9320,1.6415,1
40.9320,1.6448,1
40.9320,1.6488,1
40.9320,1.6480,1
40.9320,1.6512,1
40.9320,1.6536,1
40.9321,1.6544,1
40.9321,1.6536,1
40.9321,1.6544,1
40.9321,1.6536,1
40.9321,1.6536,1
40.9321,1.6512,1
40.9321,1.6488,1
40.9322,1.6504,1
40.9322,1.6464,1
40.9322,1.6432,1
40.9322,1.6512,1
40.9322,1.6488,1
40.9322,1.6464,1
40.9322,1.6448,1
40.9322,1.6448,1
40.9323,1.6472,1
40.9323,1.6512,1
40.9323,1.6552,1
40.9323,1.6617,1
40.9323,1.6649,1
40.9323,1.6585,1
40.9324,1.6617,1
40.9324,1.6633,1
40.9324,1.6625,1
40.9324,1.6601,1
40.9324,1.6560,1
40.9325,1.6520,1
40.9325,1.6472,1
40.9325,1.6432,1
40.9325,1.6407,1
40.9325,1.6399,1
40.9325,1.6399,1
40.9326,1.6407,1
40.9326,1.6440,1
40.9326,1.6480,1
40.9326,1.6512,1
40.9326,1.6552,1
40.9326,1.6593,1
40.9326,1.6617,1
40.9327,1.6617,1
40.9327,1.6625,1
40.9327,1.6633,1
40.9327,1.6633,1
40.9327,1.6617,1
40.9327,1.6609,1
40.9327,1.6609,1
40.9328,1.6568,1
40.9328,1.6528,1
40.9328,1.6480,1
40.9328,1.6456,1
40.9328,1.6432,1
40.9328,1.6391,1
40.9329,1.6375,1
40.9329,1.6367,1
40.9329,1.6375,1
40.9329,1.6367,1
40.9329,1.6415,1
40.9330,1.6464,1
40.9330,1.6528,1
40.9330,1.6577,1
40.9330,1.6609,1
40.9330,1.6609,1
40.9330,1.6617,1
40.9330,1.6609,1
40.9331,1.6585,1
40.9881,1.6544,1
40.9881,1.6496,1
40.9881,1.6456,1
40.9881,1.6391,1
40.9882,1.6359,1
40.9882,1.6335,1
40.9882,1.6359,1
40.9882,1.6367,1
40.9882,1.6383,1
40.9882,1.6407,1
40.9883,1.6448,1
40.9883,1.6480,1
40.9883,1.6520,1
40.9883,1.6585,1
40.9883,1.6641,1
40.9883,1.6649,1
40.9883,1.6641,1
40.9884,1.6633,1
40.9884,1.6617,1
40.9884,1.6601,1
40.9884,1.6577,1
40.9884,1.6552,1
40.9884,1.6512,1
40.9885,1.6448,1
40.9885,1.6375,1
40.9885,1.6351,1
40.9885,1.6335,1
40.9885,1.6327,1
40.9885,1.6311,1
40.9886,1.6335,1
40.9886,1.6367,1
40.9886,1.6375,1
40.9886,1.6432,1
40.9886,1.6496,1
40.9886,1.6560,1
40.9887,1.6585,1
40.9887,1.6625,1
40.9887,1.6641,1
40.9887,1.6657,1
40.9887,1.6617,1
40.9887,1.6568,1
40.9887,1.6528,1
40.9888,1.6520,1
40.9888,1.6440,1
40.9888,1.6367,1
40.9888,1.6351,1
40.9888,1.6343,1
40.9888,1.6335,1
40.9888,1.6351,1
40.9889,1.6383,1
40.9889,1.6407,1
40.9889,1.6464,1
40.9889,1.6448,1
40.9889,1.6496,1
40.9890,1.6528,1
40.9890,1.6560,1
40.9890,1.6560,1
40.9890,1.6568,1
40.9890,1.6568,1
40.9890,1.6568,1
40.9890,1.6560,1
40.9891,1.6528,1
40.9891,1.6496,1
40.9891,1.6464,1
40.9891,1.6456,1
40.9891,1.6415,1
40.9891,1.6383,1
40.9892,1.6383,1
40.9892,1.6383,1
40.9892,1.6383,1
40.9892,1.6407,1
40.9892,1.6456,1
40.9892,1.6504,1
40.9892,1.6560,1
40.9893,1.6601,1
40.9893,1.6625,1
40.9893,1.6657,1
40.9893,1.6681,1
40.9893,1.6681,1
40.9893,1.6641,1
40.9894,1.6593,1
40.9894,1.6665,1
40.9894,1.6593,1
40.9894,1.6536,1
40.9894,1.6488,1
40.9894,1.6488,1
40.9895,1.6464,1
40.9895,1.6440,1
40.9895,1.6456,1
40.9895,1.6488,1
40.9895,1.6528,1
40.9896,1.6456,1
40.9896,1.6512,1
40.9896,1.6577,1
40.9896,1.6617,1
40.9896,1.6633,1
40.9896,1.6649,1
40.9897,1.6665,1
40.9897,1.6673,1
40.9897,1.6673,1
40.9897,1.6665,1
40.9897,1.6633,1
40.9897,1.6609,1
40.9897,1.6544,1
40.9898,1.6520,1
40.9898,1.6641,1
40.9898,1.6609,1
40.9898,1.6560,1
40.9898,1.6536,1
40.9898,1.6448,1
40.9899,1.6472,1
40.9899,1.6520,1
40.9899,1.6585,1
41.0460,1.6641,1
41.0460,1.6681,1
41.0460,1.6544,1
41.0460,1.6593,1
41.0460,1.6681,1
41.0460,1.6673,1
41.0461,1.6714,1
41.0461,1.6665,1
41.0461,1.6585,1
41.0461,1.6520,1
41.0461,1.6448,1
41.0461,1.6407,1
41.0462,1.6407,1
41.0462,1.6391,1
41.0462,1.6335,1
41.0462,1.6375,1
41.0462,1.6343,1
41.0462,1.6383,1
41.0462,1.6440,1
41.0463,1.6488,1
41.0463,1.6544,1
41.0463,1.6585,1
41.0463,1.6593,1
41.0463,1.6593,1
41.0463,1.6609,1
41.0464,1.6585,1
41.0464,1.6641,1
41.0464,1.6609,1
41.0464,1.6593,1
41.0464,1.6536,1
41.0464,1.6496,1
41.0465,1.6432,1
41.0465,1.6383,1
41.0465,1.6359,1
41.0465,1.6351,1
41.0465,1.6359,1
41.0465,1.6375,1
41.0466,1.6399,1
41.0466,1.6464,1
41.0466,1.6504,1
41.0466,1.6536,1
41.0466,1.6552,1
41.0466,1.6609,1
41.0466,1.6641,1
41.0467,1.6633,1
41.0467,1.6625,1
41.0467,1.6601,1
41.0467,1.6560,1
41.0467,1.6496,1
41.0467,1.6448,1
41.0467,1.6448,1
41.0468,1.6456,1
41.0468,1.6432,1
41.0468,1.6407,1
41.0468,1.6448,1
41.0468,1.6456,1
41.0468,1.6440,1
41.0469,1.6464,1
41.0469,1.6464,1
41.0469,1.6512,1
41.0469,1.6488,1
41.0469,1.6520,1
41.0469,1.6520,1
41.0470,1.6625,1
41.0470,1.6617,1
41.0470,1.6625,1
41.0470,1.6625,1
41.0470,1.6617,1
41.0470,1.6617,1
41.0471,1.6786,1
41.0471,1.6738,1
41.0471,1.6625,1
41.0471,1.6544,1
41.0471,1.6407,1
41.0471,1.6359,1
41.0471,1.6343,1
41.0472,1.6367,1
41.0472,1.6407,1
41.0472,1.6472,1
41.0472,1.6303,1
41.0472,1.6351,1
41.0472,1.6480,1
41.0473,1.6641,1
41.0473,1.6681,1
41.0473,1.6673,1
41.0473,1.6665,1
41.0473,1.6665,1
41.0473,1.6625,1
41.0473,1.6568,1
41.0474,1.6528,1
41.0474,1.6601,1
41.0474,1.6552,1
41.0474,1.6488,1
41.0474,1.6472,1
41.0474,1.6496,1
41.0475,1.6520,1
41.0475,1.6593,1
41.0475,1.6609,1
41.0475,1.6657,1
41.0475,1.6673,1
41.0475,1.6609,1
41.0475,1.6641,1
41.0476,1.6657,1
41.0476,1.6665,1
41.0476,1.6657,1
41.0476,1.6649,1
41.0476,1.6577,1
41.0476,1.6568,1
41.0477,1.6528,1
41.0477,1.6512,1
41.0477,1.6834,1
41.0477,1.6762,1
41.0477,1.6770,1
41.0477,1.6722,1
41.0477,1.6705,1
41.0478,1.6681,1
41.1044,1.6794,1
41.1044,1.6810,1
41.1044,1.6859,1
41.1044,1.6899,1
41.1044,1.6601,1
41.1044,1.6689,1
41.1045,1.6681,1
41.1045,1.6722,1
41.1045,1.6786,1
41.1045,1.6802,1
41.1045,1.6738,1
41.1045,1.6714,1
41.1046,1.6657,1
41.1046,1.6625,1
41.1046,1.6593,1
41.1046,1.6552,1
41.1046,1.6560,1
41.1046,1.6593,1
41.1047,1.6568,1
41.1047,1.6601,1
41.1047,1.6568,1
41.1047,1.6601,1
41.1047,1.6609,1
41.1047,1.6625,1
41.1047,1.6649,1
41.1048,1.6665,1
41.1048,1.6657,1
41.1048,1.6657,1
41.1048,1.6649,1
