Zaman (sn),Voltaj (V),Label
1.2474,1.7213,1
1.2475,1.7157,1
1.2475,1.7141,1
1.2519,1.7133,1
1.2520,1.7092,1
1.2520,1.6504,1
1.2520,1.7165,1
1.2521,1.7165,1
1.2521,1.7181,1
1.2521,1.7213,1
1.2521,1.7221,1
1.2521,1.7076,1
1.2522,1.7318,1
1.2522,1.7399,1
1.2522,1.7415,1
1.2522,1.7447,1
1.2522,1.7495,1
1.2523,1.7576,1
1.2523,1.7656,1
1.2523,1.7527,1
1.2523,1.7745,1
1.2523,1.7801,1
1.2524,1.7834,1
1.2524,1.7874,1
1.2524,1.7955,1
1.2524,1.8027,1
1.2524,1.8035,1
1.2525,1.8027,1
1.2525,1.8148,1
1.2525,1.8172,1
1.2525,1.8204,1
1.2525,1.8229,1
1.2526,1.8261,1
1.2526,1.8277,1
1.2526,1.8325,1
1.2526,1.8116,1
1.2526,1.8382,1
1.2527,1.8406,1
1.2527,1.8406,1
1.2527,1.8398,1
1.2527,1.8462,1
1.2527,1.8430,1
1.2527,1.8446,1
1.2528,1.8478,1
1.2528,1.8446,1
1.2528,1.8430,1
1.2528,1.8454,1
1.2528,1.8446,1
1.2528,1.8462,1
1.2529,1.8438,1
1.2529,1.8462,1
1.2529,1.8462,1
1.2529,1.8478,1
1.2529,1.8462,1
1.2530,1.8478,1
1.2530,1.8583,1
1.2530,1.8462,1
1.2530,1.8551,1
1.2530,1.8470,1
1.2531,1.8551,1
1.2531,1.8462,1
1.2531,1.8349,1
1.2531,1.8495,1
1.2531,1.8486,1
1.2532,1.8478,1
1.2532,1.8478,1
1.2532,1.8470,1
1.2532,1.8462,1
1.2532,1.8414,1
1.2532,1.8422,1
1.2533,1.8398,1
1.2533,1.8390,1
1.2533,1.8382,1
1.2533,1.8374,1
1.2533,1.8358,1
1.2534,1.8309,1
1.2534,1.7914,1
1.2534,1.8309,1
1.2534,1.8261,1
1.2534,1.8277,1
1.2534,1.8188,1
1.2535,1.8164,1
1.2535,1.8067,1
1.2535,1.8043,1
1.2535,1.8043,1
1.2535,1.7987,1
1.2536,1.7938,1
1.2536,1.7947,1
1.2536,1.7866,1
1.2536,1.7511,1
1.2536,1.7834,1
1.2536,1.7793,1
1.2537,1.7697,1
1.2537,1.7697,1
1.2537,1.8124,1
1.2572,1.7536,1
1.2573,1.7511,1
1.2573,1.7415,1
1.2573,1.7294,1
1.2573,1.7423,1
1.2573,1.7366,1
1.2574,1.7205,1
1.2574,1.7318,1
1.2574,1.7253,1
1.2574,1.7149,1
1.2574,1.7173,1
1.2575,1.7060,1
1.2575,1.6988,1
1.2575,1.7060,1
1.2575,1.6947,1
1.2575,1.6907,1
1.2576,1.6891,1
1.2576,1.6810,1
1.2576,1.6754,1
1.2576,1.6705,1
1.2576,1.6673,1
1.2577,1.6641,1
1.2577,1.6552,1
1.2577,1.6625,1
1.2577,1.6464,1
1.2577,1.6399,1
1.2578,1.6407,1
1.2578,1.6262,1
1.2578,1.6270,1
1.2578,1.6311,1
1.2578,1.6198,1
1.2578,1.6149,1
1.2579,1.6109,1
1.2579,1.6021,1
1.2579,1.6053,1
1.2579,1.5948,1
1.2579,1.5900,1
1.2580,1.5892,1
1.2580,1.5851,1
1.2580,1.5827,1
1.2580,1.5835,1
1.2580,1.5747,1
1.2581,1.5722,1
1.2581,1.5610,1
1.2581,1.5634,1
1.2581,1.5650,1
1.2581,1.5610,1
1.2582,1.5577,1
1.2582,1.5545,1
1.2582,1.5473,1
1.2582,1.5408,1
1.2582,1.5432,1
1.2582,1.5384,1
1.2583,1.5400,1
1.2583,1.5448,1
1.2583,1.5311,1
1.2583,1.5174,1
1.2584,1.5303,1
1.2584,1.5279,1
1.2584,1.5255,1
1.2584,1.5231,1
1.2584,1.5255,1
1.2585,1.5239,1
1.2585,1.5150,1
1.2585,1.5142,1
1.2585,1.5029,1
1.2585,1.5126,1
1.2585,1.5126,1
1.2586,1.5142,1
1.2586,1.5102,1
1.2586,1.5045,1
1.2586,1.4997,1
1.2586,1.5110,1
1.2613,1.5094,1
1.2614,1.4779,1
1.2614,1.5086,1
1.2614,1.5102,1
1.2615,1.5070,1
1.2615,1.5062,1
1.2615,1.5037,1
1.2615,1.5053,1
1.2615,1.5094,1
1.2616,1.5029,1
1.2616,1.4997,1
1.2616,1.5021,1
1.2616,1.5005,1
1.2616,1.5053,1
1.2617,1.4957,1
1.2617,1.4989,1
1.2617,1.5062,1
1.2617,1.5005,1
1.2617,1.5126,1
1.2617,1.4884,1
1.2618,1.5029,1
1.2618,1.5021,1
1.2618,1.4812,1
1.2618,1.5126,1
1.2618,1.5045,1
1.2618,1.5086,1
1.2619,1.5062,1
1.2619,1.5102,1
1.2619,1.5086,1
1.2619,1.5118,1
1.2619,1.5094,1
1.2620,1.5110,1
1.2620,1.5094,1
1.2620,1.5102,1
1.2620,1.5118,1
1.2620,1.5118,1
1.2621,1.5134,1
1.2621,1.5142,1
1.2621,1.5134,1
1.2621,1.5134,1
1.2621,1.5408,1
1.2622,1.5134,1
1.2622,1.5190,1
1.2622,1.5150,1
1.2622,1.5190,1
1.2622,1.5231,1
1.2622,1.5199,1
1.2623,1.5223,1
1.2623,1.5239,1
1.2623,1.5255,1
1.2623,1.5263,1
1.2623,1.5279,1
1.2624,1.5287,1
1.2624,1.5287,1
1.2624,1.5303,1
1.2624,1.5319,1
1.2624,1.5360,1
1.2664,1.5360,1
1.2665,1.5368,1
1.2665,1.5376,1
1.2665,1.5400,1
1.2665,1.5400,1
1.2665,1.5424,1
1.2666,1.5424,1
1.2666,1.5416,1
1.2666,1.5432,1
1.2666,1.5448,1
1.2666,1.5392,1
1.2666,1.5456,1
1.2666,1.5529,1
1.2667,1.5537,1
1.2667,1.5513,1
1.2667,1.5513,1
1.2667,1.5553,1
1.2667,1.5577,1
1.2667,1.5626,1
1.2667,1.5618,1
1.2668,1.5642,1
1.2668,1.5642,1
1.2668,1.5626,1
1.2668,1.5626,1
1.2668,1.5642,1
1.2668,1.5642,1
1.2669,1.5682,1
1.2669,1.5601,1
1.2669,1.5698,1
1.2669,1.5722,1
1.2669,1.5698,1
1.2669,1.5779,1
1.2669,1.5811,1
1.2670,1.5763,1
1.2670,1.5843,1
1.2670,1.5980,1
1.2670,1.6206,1
1.2670,1.6415,1
1.2670,1.6641,1
1.2696,1.6891,1
1.2696,1.7149,1
1.2696,1.7310,1
1.2697,1.7544,1
1.2697,1.7689,1
1.2720,1.7697,1
1.2720,1.7664,1
1.2720,1.7640,1
1.2720,1.7568,1
1.2721,1.7471,1
1.2743,1.7310,1
1.2743,1.7108,1
1.2744,1.6899,1
1.2744,1.6730,1
1.2744,1.6528,1
1.2766,1.6375,1
1.2767,1.6214,1
1.2767,1.6141,1
1.2767,1.6085,1
1.2792,1.6117,1
1.2792,1.6133,1
1.2792,1.6230,1
1.2793,1.6182,1
1.2793,1.6432,1
1.2826,1.6496,1
1.2826,1.6568,1
1.2826,1.6649,1
1.2826,1.6641,1
1.2827,1.6617,1
1.2827,1.6609,1
1.2827,1.6552,1
1.2851,1.6496,1
1.2851,1.6423,1
1.2851,1.6343,1
1.2851,1.6222,1
1.2851,1.6141,1
1.2875,1.6069,1
1.2875,1.6109,1
1.2875,1.6149,1
1.2875,1.6262,1
1.2875,1.6367,1
1.2901,1.6520,1
1.2901,1.6689,1
1.2901,1.6778,1
1.2901,1.6899,1
1.2901,1.6907,1
1.2925,1.6931,1
1.2925,1.6915,1
1.2925,1.6859,1
1.2926,1.6859,1
1.2926,1.6714,1
1.2949,1.6641,1
1.2950,1.6520,1
1.2950,1.6383,1
1.2950,1.6367,1
1.2950,1.6190,1
1.2975,1.6109,1
1.2975,1.6117,1
1.2975,1.6133,1
1.2976,1.6206,1
1.2976,1.6262,1
1.3009,1.6423,1
1.3009,1.6512,1
1.3009,1.6649,1
1.3009,1.6770,1
1.3010,1.6818,1
1.3010,1.6810,1
1.3010,1.6842,1
1.3035,1.6834,1
1.3035,1.6778,1
1.3035,1.6714,1
1.3035,1.6585,1
1.3035,1.6528,1
1.3058,1.6399,1
1.3059,1.6278,1
1.3059,1.6133,1
1.3059,1.6069,1
1.3059,1.6069,1
1.3083,1.6085,1
1.3083,1.6238,1
1.3083,1.6335,1
1.3083,1.6496,1
1.3084,1.6649,1
1.3108,1.6794,1
1.3108,1.6867,1
1.3108,1.6875,1
1.3108,1.6915,1
1.3108,1.6915,1
1.3135,1.6875,1
1.3135,1.6834,1
1.3135,1.6762,1
1.3135,1.6625,1
1.3135,1.6593,1
1.3171,1.6423,1
1.3171,1.6319,1
1.3172,1.6254,1
1.3172,1.6198,1
1.3172,1.6214,1
1.3172,1.6206,1
1.3172,1.6311,1
1.3201,1.6375,1
1.3201,1.6496,1
1.3201,1.6633,1
1.3201,1.6722,1
1.3202,1.6826,1
1.3202,1.6891,1
1.3227,1.6939,1
1.3228,1.6899,1
1.3228,1.6899,1
1.3228,1.6834,1
1.3228,1.6770,1
1.3228,1.6657,1
1.3254,1.6552,1
1.3254,1.6464,1
1.3254,1.6359,1
1.3254,1.6206,1
1.3254,1.6109,1
1.3280,1.6133,1
1.3280,1.6206,1
1.3281,1.6278,1
1.3281,1.6367,1
1.3281,1.6544,1
1.3309,1.6714,1
1.3309,1.6786,1
1.3309,1.6859,1
1.3310,1.6907,1
1.3310,1.6939,1
1.3310,1.6907,1
1.3347,1.6899,1
1.3347,1.6834,1
1.3347,1.6770,1
1.3347,1.6689,1
1.3347,1.6568,1
1.3348,1.6423,1
1.3348,1.6311,1
1.3348,1.6238,1
1.3375,1.6182,1
1.3375,1.6182,1
1.3375,1.6182,1
1.3376,1.6278,1
1.3376,1.6359,1
1.3402,1.6456,1
1.3402,1.6585,1
1.3403,1.6746,1
1.3403,1.6826,1
1.3403,1.6891,1
1.3403,1.6915,1
1.3430,1.6931,1
1.3430,1.6907,1
1.3430,1.6867,1
1.3430,1.6778,1
1.3430,1.6673,1
1.3455,1.6593,1
1.3455,1.6480,1
1.3455,1.6335,1
1.3455,1.6190,1
1.3455,1.6109,1
1.3491,1.6117,1
1.3492,1.6174,1
1.3492,1.6262,1
1.3492,1.6359,1
1.3492,1.6512,1
1.3492,1.6625,1
1.3492,1.6730,1
1.3493,1.6834,1
1.3521,1.6899,1
1.3521,1.6947,1
1.3522,1.6907,1
1.3522,1.6867,1
1.3522,1.6834,1
1.3548,1.6754,1
1.3548,1.6625,1
1.3548,1.6528,1
1.3548,1.6391,1
1.3548,1.6295,1
1.3549,1.6206,1
1.3574,1.6182,1
1.3574,1.6141,1
1.3574,1.6182,1
1.3574,1.6286,1
1.3574,1.6343,1
1.3600,1.6472,1
1.3600,1.6585,1
1.3600,1.6714,1
1.3600,1.6810,1
1.3600,1.6875,1
1.3628,1.7415,1
1.3628,1.6851,1
1.3629,1.6899,1
1.3629,1.6794,1
1.3629,1.6746,1
1.3629,1.6633,1
1.3664,1.6577,1
1.3664,1.6448,1
1.3664,1.6319,1
1.3665,1.6198,1
1.3665,1.6109,1
1.3665,1.6141,1
1.3665,1.6190,1
1.3692,1.6270,1
1.3693,1.6423,1
1.3693,1.6544,1
1.3693,1.6689,1
1.3693,1.6754,1
1.3693,1.6859,1
1.3722,1.6907,1
1.3722,1.6915,1
1.3722,1.6931,1
1.3722,1.6907,1
1.3722,1.6842,1
1.3747,1.6786,1
1.3748,1.6705,1
1.3748,1.6585,1
1.3748,1.6432,1
1.3748,1.6391,1
1.3774,1.6262,1
1.3774,1.6198,1
1.3775,1.6174,1
1.3775,1.6174,1
1.3775,1.6270,1
1.3775,1.6335,1
1.3803,1.6464,1
1.3804,1.6552,1
1.3804,1.6738,1
1.3804,1.6826,1
1.3804,1.6883,1
1.3804,1.6939,1
1.3842,1.6971,1
1.3842,1.6818,1
1.3842,1.6891,1
1.3842,1.6778,1
1.3843,1.6746,1
1.3843,1.6617,1
1.3843,1.6472,1
1.3843,1.6383,1
1.3871,1.6230,1
1.3871,1.6182,1
1.3871,1.6125,1
1.3871,1.6125,1
1.3871,1.6278,1
1.3897,1.6407,1
1.3898,1.6552,1
1.3898,1.6714,1
1.3898,1.6818,1
1.3898,1.6891,1
1.3925,1.6931,1
1.3925,1.6939,1
1.3925,1.6915,1
1.3925,1.6907,1
1.3925,1.6867,1
1.3925,1.6778,1
1.3951,1.6697,1
1.3951,1.6601,1
1.3952,1.6440,1
1.3952,1.6367,1
1.3952,1.6270,1
1.3980,1.6206,1
1.3980,1.6214,1
1.3980,1.6182,1
1.3981,1.6327,1
1.3981,1.6391,1
1.3981,1.6496,1
1.4021,1.6657,1
1.4021,1.6738,1
1.4021,1.6818,1
1.4021,1.6899,1
1.4021,1.6931,1
1.4022,1.6915,1
1.4022,1.6907,1
1.4022,1.6842,1
1.4050,1.6770,1
1.4050,1.6722,1
1.4050,1.6585,1
1.4051,1.6464,1
1.4051,1.6343,1
1.4051,1.6198,1
1.4079,1.6117,1
1.4079,1.6117,1
1.4079,1.6141,1
1.4079,1.6246,1
1.4079,1.6335,1
1.4079,1.6472,1
1.4107,1.6633,1
1.4107,1.6730,1
1.4107,1.6851,1
1.4107,1.6867,1
1.4108,1.6915,1
1.4108,1.6891,1
1.4138,1.6867,1
1.4138,1.6802,1
1.4138,1.6746,1
1.4138,1.6609,1
1.4139,1.6560,1
1.4139,1.6399,1
1.4181,1.6319,1
1.4182,1.6246,1
1.4182,1.6174,1
1.4182,1.6158,1
1.4182,1.6190,1
1.4183,1.6278,1
1.4183,1.6351,1
1.4183,1.6488,1
1.4183,1.6633,1
1.4213,1.6722,1
1.4213,1.6794,1
1.4213,1.6891,1
1.4214,1.6915,1
1.4214,1.6939,1
1.4214,1.6907,1
1.4242,1.6842,1
1.4242,1.6770,1
1.4242,1.6697,1
1.4242,1.6552,1
1.4242,1.6456,1
1.4243,1.6327,1
1.4272,1.6230,1
1.4272,1.6101,1
1.4273,1.6117,1
1.4273,1.6174,1
1.4273,1.6254,1
1.4304,1.6343,1
1.4304,1.6504,1
1.4304,1.6649,1
1.4305,1.6730,1
1.4305,1.6826,1
1.4305,1.6867,1
1.4305,1.6875,1
1.4348,1.6859,1
1.4348,1.6834,1
1.4348,1.6810,1
1.4348,1.6730,1
1.4349,1.6617,1
1.4349,1.6504,1
1.4349,1.6407,1
1.4349,1.6303,1
1.4349,1.6198,1
1.4381,1.6149,1
1.4381,1.6141,1
1.4382,1.6158,1
1.4382,1.6270,1
1.4382,1.6335,1
1.4382,1.6456,1
1.4412,1.6568,1
1.4412,1.6673,1
1.4412,1.6762,1
1.4413,1.6851,1
1.4413,1.6875,1
1.4413,1.6875,1
1.4413,1.6859,1
1.4443,1.6794,1
1.4443,1.6714,1
1.4443,1.6641,1
1.4444,1.6552,1
1.4444,1.6432,1
1.4444,1.6327,1
1.4476,1.6182,1
1.4476,1.6085,1
1.4476,1.6101,1
1.4476,1.6125,1
1.4477,1.6230,1
1.4477,1.6343,1
1.4519,1.6488,1
1.4519,1.6625,1
1.4519,1.6738,1
1.4519,1.6834,1
1.4519,1.6859,1
1.4519,1.6883,1
1.4520,1.6899,1
1.4520,1.6875,1
1.4520,1.6810,1
1.4554,1.6754,1
1.4554,1.6609,1
1.4554,1.6528,1
1.4554,1.6407,1
1.4555,1.6351,1
1.4555,1.6262,1
1.4555,1.6222,1
1.4585,1.6198,1
1.4586,1.6206,1
1.4586,1.6262,1
1.4586,1.6351,1
1.4586,1.6456,1
1.4586,1.6601,1
1.4616,1.6697,1
1.4617,1.6794,1
1.4617,1.6867,1
1.4617,1.6891,1
1.4617,1.6875,1
1.4617,1.6883,1
1.4649,1.6826,1
1.4649,1.6738,1
1.4649,1.6641,1
1.4650,1.6585,1
1.4650,1.6472,1
1.4650,1.6327,1
1.4650,1.6206,1
1.4691,1.6125,1
1.4691,1.6141,1
1.4691,1.6182,1
1.4691,1.6238,1
1.4691,1.6343,1
1.4692,1.6504,1
1.4692,1.6609,1
1.4692,1.6738,1
1.4725,1.6834,1
1.4725,1.6859,1
1.4725,1.7471,1
1.4725,1.6778,1
1.4725,1.6802,1
1.4726,1.6738,1
1.4726,1.6697,1
1.4757,1.6609,1
1.4757,1.6496,1
1.4758,1.6383,1
1.4758,1.6311,1
1.4758,1.6238,1
1.4758,1.6158,1
1.4758,1.6182,1
1.4791,1.6198,1
1.4792,1.6278,1
1.4792,1.6351,1
1.4792,1.6480,1
1.4792,1.6633,1
1.4792,1.6730,1
1.4793,1.6834,1
1.4836,1.6875,1
1.4836,1.6915,1
1.4837,1.6907,1
1.4837,1.6883,1
1.4837,1.6834,1
1.4837,1.6746,1
1.4837,1.6649,1
1.4838,1.6593,1
1.4838,1.6472,1
1.4870,1.6335,1
1.4870,1.6174,1
1.4870,1.6101,1
1.4871,1.6109,1
1.4871,1.6117,1
1.4871,1.6270,1
1.4902,1.6415,1
1.4902,1.6520,1
1.4902,1.6625,1
1.4902,1.6722,1
1.4902,1.6802,1
1.4902,1.6875,1
1.4934,1.6883,1
1.4934,1.6875,1
1.4935,1.6859,1
1.4935,1.6810,1
1.4935,1.6746,1
1.4935,1.6625,1
1.4935,1.6528,1
1.4969,1.6399,1
1.4969,1.6351,1
1.4969,1.6262,1
1.4969,1.6166,1
1.4970,1.6182,1
1.4970,1.6190,1
1.4970,1.6270,1
1.5010,1.6343,1
1.5011,1.6488,1
1.5011,1.6601,1
1.5011,1.6714,1
1.5011,1.6794,1
1.5011,1.6875,1
1.5011,1.6907,1
1.5012,1.6939,1
1.5044,1.6899,1
1.5044,1.6867,1
1.5045,1.6778,1
1.5045,1.6738,1
1.5045,1.6568,1
1.5045,1.6472,1
1.5045,1.6351,1
1.5076,1.6230,1
1.5076,1.6174,1
1.5076,1.6158,1
1.5077,1.6141,1
1.5077,1.6254,1
1.5077,1.6423,1
1.5109,1.6512,1
1.5109,1.6689,1
1.5109,1.6770,1
1.5109,1.6883,1
1.5109,1.6891,1
1.5109,1.6915,1
1.5110,1.6907,1
1.5144,1.6867,1
1.5144,1.6818,1
1.5145,1.6754,1
1.5145,1.6689,1
1.5145,1.6536,1
1.5145,1.6415,1
1.5145,1.6359,1
1.5189,1.6262,1
1.5189,1.6174,1
1.5189,1.6182,1
1.5189,1.6198,1
1.5190,1.6286,1
1.5190,1.6383,1
1.5190,1.6472,1
1.5190,1.6552,1
1.5190,1.6730,1
1.5223,1.6770,1
1.5223,1.6859,1
1.5223,1.6859,1
1.5224,1.6883,1
1.5224,1.6842,1
1.5224,1.6778,1
1.5224,1.6730,1
1.5256,1.6625,1
1.5257,1.6560,1
1.5257,1.6423,1
1.5257,1.6270,1
1.5257,1.6182,1
1.5257,1.6109,1
1.5292,1.6109,1
1.5292,1.6182,1
1.5292,1.6206,1
1.5292,1.6432,1
1.5293,1.6464,1
1.5293,1.6593,1
1.5293,1.6689,1
1.5335,1.6794,1
1.5335,1.6826,1
1.5336,1.6851,1
1.5336,1.6859,1
1.5336,1.6842,1
1.5336,1.6810,1
1.5336,1.6496,1
1.5336,1.6641,1
1.5336,1.6528,1
1.5370,1.6391,1
1.5370,1.6303,1
1.5370,1.6230,1
1.5370,1.6182,1
1.5370,1.6174,1
1.5370,1.6109,1
1.5371,1.6262,1
1.5404,1.6327,1
1.5405,1.6472,1
1.5405,1.6552,1
1.5405,1.6681,1
1.5405,1.6834,1
1.5405,1.6842,1
1.5405,1.6963,1
1.5437,1.6899,1
1.5437,1.6859,1
1.5438,1.6794,1
1.5438,1.6738,1
1.5438,1.6609,1
1.5438,1.6560,1
1.5473,1.6432,1
1.5473,1.6327,1
1.5473,1.6174,1
1.5474,1.5988,1
1.5474,1.6125,1
1.5474,1.6158,1
1.5474,1.6262,1
1.5474,1.6343,1
1.5518,1.6496,1
1.5519,1.6681,1
1.5519,1.6754,1
1.5519,1.6826,1
1.5519,1.6875,1
1.5519,1.6867,1
1.5520,1.6891,1
1.5520,1.7020,1
1.5520,1.6786,1
1.5554,1.6705,1
1.5554,1.6617,1
1.5554,1.6359,1
1.5554,1.6407,1
1.5555,1.6319,1
1.5555,1.6246,1
1.5555,1.6174,1
1.5590,1.6174,1
1.5590,1.6190,1
1.5590,1.6278,1
1.5591,1.6367,1
1.5591,1.6464,1
1.5591,1.6601,1
1.5591,1.6697,1
1.5629,1.6794,1
1.5629,1.6875,1
1.5629,1.6883,1
1.5629,1.6867,1
1.5629,1.6842,1
1.5630,1.6794,1
1.5630,1.6649,1
1.5630,1.6633,1
1.5676,1.6657,1
1.5676,1.6448,1
1.5676,1.6593,1
1.5676,1.6166,1
1.5676,1.6069,1
1.5676,1.6085,1
1.5677,1.6141,1
1.5677,1.6254,1
1.5677,1.6472,1
1.5714,1.6512,1
1.5715,1.6593,1
1.5715,1.6794,1
1.5715,1.6915,1
1.5715,1.6907,1
1.5715,1.6915,1
1.5715,1.6907,1
1.5715,1.6899,1
1.5752,1.6842,1
1.5753,1.6722,1
1.5753,1.6665,1
1.5753,1.6544,1
1.5753,1.6423,1
1.5753,1.6335,1
1.5754,1.6238,1
1.5754,1.6206,1
1.5793,1.6222,1
1.5793,1.6182,1
1.5793,1.6311,1
1.5793,1.6375,1
1.5793,1.6560,1
1.5794,1.6657,1
1.5794,1.6746,1
1.5794,1.6585,1
1.5841,1.6907,1
1.5842,1.6939,1
1.5842,1.6947,1
1.5842,1.6915,1
1.5842,1.6883,1
1.5842,1.6786,1
1.5842,1.6705,1
1.5843,1.6488,1
1.5843,1.6448,1
1.5881,1.6303,1
1.5881,1.6182,1
1.5881,1.6182,1
1.5882,1.6125,1
1.5882,1.6141,1
1.5882,1.6246,1
1.5882,1.6399,1
1.5882,1.6488,1
1.5920,1.6649,1
1.5921,1.6722,1
1.5921,1.6842,1
1.5921,1.6859,1
1.5921,1.6891,1
1.5921,1.6867,1
1.5921,1.6842,1
1.5922,1.6802,1
1.5962,1.6689,1
1.5962,1.6609,1
1.5963,1.6891,1
1.5963,1.6367,1
1.5963,1.6278,1
1.5963,1.6214,1
1.5963,1.6158,1
1.5963,1.6174,1
1.5964,1.6158,1
1.6013,1.6270,1
1.6013,1.6319,1
1.6014,1.6480,1
1.6014,1.6617,1
1.6014,1.6730,1
1.6014,1.6939,1
1.6014,1.6891,1
1.6014,1.7092,1
1.6015,1.6907,1
1.6015,1.6851,1
1.6056,1.6794,1
1.6056,1.6754,1
1.6056,1.6697,1
1.6056,1.6665,1
1.6057,1.6440,1
1.6057,1.6335,1
1.6057,1.6198,1
1.6057,1.6037,1
1.6098,1.6109,1
1.6098,1.6286,1
1.6098,1.6262,1
1.6098,1.6432,1
1.6099,1.6480,1
1.6099,1.6649,1
1.6099,1.6778,1
1.6099,1.6826,1
1.6099,1.6883,1
1.6144,1.6802,1
1.6144,1.6891,1
1.6145,1.6875,1
1.6145,1.6802,1
1.6145,1.6754,1
1.6145,1.6617,1
1.6145,1.6528,1
1.6145,1.6432,1
1.6145,1.6407,1
1.6197,1.6246,1
1.6197,1.6278,1
1.6197,1.6149,1
1.6198,1.6166,1
1.6198,1.6254,1
1.6198,1.6327,1
1.6199,1.6432,1
1.6199,1.6593,1
1.6199,1.6697,1
1.6199,1.6778,1
1.6199,1.6851,1
1.6245,1.6859,1
1.6246,1.6883,1
1.6246,1.6859,1
1.6246,1.6826,1
1.6246,1.6754,1
1.6246,1.6681,1
1.6247,1.6568,1
1.6247,1.6432,1
1.6247,1.6198,1
1.6292,1.6222,1
1.6292,1.6101,1
1.6292,1.6133,1
1.6292,1.6174,1
1.6292,1.6262,1
1.6293,1.6230,1
1.6293,1.6528,1
1.6293,1.6697,1
1.6293,1.6770,1
1.6293,1.6762,1
1.6349,1.6891,1
1.6349,1.6907,1
1.6349,1.6875,1
1.6349,1.6851,1
1.6350,1.6778,1
1.6350,1.6786,1
1.6350,1.6601,1
1.6350,1.6536,1
1.6350,1.6359,1
1.6350,1.6295,1
1.6351,1.6238,1
1.6395,1.6149,1
1.6395,1.6174,1
1.6396,1.6174,1
1.6396,1.6278,1
1.6396,1.6415,1
1.6396,1.6488,1
1.6396,1.6665,1
1.6396,1.6705,1
1.6396,1.6786,1
1.6440,1.6851,1
1.6441,1.6770,1
1.6441,1.6931,1
1.6441,1.6875,1
1.6441,1.6826,1
1.6441,1.6762,1
1.6441,1.6681,1
1.6441,1.6552,1
1.6442,1.6432,1
1.6487,1.6303,1
1.6487,1.6174,1
1.6488,1.6093,1
1.6488,1.6109,1
1.6488,1.6166,1
1.6488,1.6238,1
1.6488,1.6407,1
1.6488,1.6504,1
1.6489,1.6673,1
1.6489,1.6754,1
1.6534,1.7036,1
1.6534,1.6851,1
1.6534,1.6818,1
1.6534,1.6851,1
1.6535,1.6826,1
1.6535,1.6762,1
1.6535,1.6697,1
1.6535,1.6585,1
1.6535,1.6472,1
1.6579,1.6375,1
1.6580,1.6262,1
1.6580,1.6190,1
1.6580,1.6141,1
1.6580,1.6158,1
1.6580,1.6141,1
1.6580,1.6246,1
1.6581,1.6367,1
1.6581,1.6480,1
1.6626,1.6593,1
1.6626,1.6722,1
1.6626,1.6802,1
1.6626,1.6834,1
1.6627,1.6859,1
1.6627,1.6851,1
1.6627,1.6859,1
1.6627,1.6778,1
1.6627,1.6705,1
1.6681,1.6625,1
1.6681,1.6552,1
1.6681,1.6423,1
1.6681,1.6286,1
1.6681,1.6174,1
1.6681,1.6125,1
1.6682,1.6093,1
1.6682,1.6149,1
1.6682,1.6246,1
1.6682,1.6391,1
1.6682,1.6488,1
1.6728,1.6673,1
1.6728,1.6746,1
1.6729,1.6826,1
1.6729,1.6875,1
1.6729,1.6826,1
1.6729,1.6851,1
1.6729,1.6826,1
1.6729,1.6778,1
1.6730,1.7374,1
1.6730,1.6528,1
1.6774,1.6423,1
1.6774,1.6311,1
1.6775,1.6238,1
1.6775,1.6166,1
1.6775,1.6125,1
1.6775,1.6166,1
1.6775,1.5174,1
1.6775,1.6359,1
1.6776,1.6432,1
1.6822,1.6536,1
1.6822,1.6633,1
1.6822,1.6754,1
1.6823,1.6851,1
1.6823,1.6883,1
1.6823,1.6810,1
1.6823,1.6891,1
1.6823,1.6867,1
1.6823,1.6802,1
1.6824,1.6722,1
1.6870,1.6665,1
1.6870,1.6536,1
1.6870,1.6407,1
1.6871,1.6278,1
1.6871,1.6133,1
1.6871,1.6125,1
1.6871,1.6045,1
1.6871,1.6069,1
1.6871,1.6166,1
1.6917,1.6335,1
1.6917,1.6415,1
1.6917,1.6585,1
1.6918,1.6681,1
1.6918,1.6786,1
1.6918,1.6810,1
1.6918,1.6810,1
1.6918,1.6851,1
1.6919,1.6818,1
1.6919,1.6754,1
1.6965,1.6697,1
1.6965,1.6601,1
1.6965,1.6504,1
1.6965,1.6415,1
1.6966,1.6335,1
1.6966,1.6222,1
1.6966,1.6182,1
1.6966,1.6190,1
1.6966,1.6190,1
1.7021,1.6278,1
1.7021,1.6343,1
1.7021,1.6480,1
1.7021,1.6609,1
1.7022,1.6714,1
1.7022,1.6794,1
1.7022,1.6859,1
1.7022,1.6875,1
1.7022,1.6867,1
1.7022,1.6859,1
1.7023,1.6786,1
1.7023,1.6722,1
1.7072,1.6657,1
1.7072,1.6504,1
1.7072,1.6391,1
1.7072,1.6238,1
1.7073,1.6125,1
1.7073,1.6045,1
1.7073,1.6077,1
1.7073,1.6117,1
1.7073,1.6214,1
1.7073,1.6319,1
1.7119,1.6472,1
1.7119,1.6625,1
1.7119,1.6730,1
1.7119,1.6794,1
1.7120,1.6851,1
1.7120,1.6842,1
1.7120,1.6851,1
1.7120,1.6786,1
1.7120,1.6786,1
1.7167,1.6705,1
1.7167,1.6577,1
1.7167,1.6480,1
1.7168,1.6375,1
1.7168,1.6238,1
1.7168,1.6190,1
1.7168,1.6149,1
1.7168,1.6149,1
1.7168,1.6158,1
1.7169,1.6270,1
1.7216,1.6319,1
1.7216,1.6464,1
1.7216,1.6585,1
1.7216,1.6673,1
1.7217,1.6770,1
1.7217,1.6834,1
1.7217,1.6875,1
1.7217,1.6883,1
1.7217,1.6851,1
1.7263,1.6770,1
1.7264,1.6730,1
1.7264,1.6657,1
1.7264,1.6577,1
1.7264,1.6415,1
1.7264,1.6303,1
1.7265,1.6182,1
1.7265,1.6125,1
1.7265,1.6077,1
1.7265,1.6141,1
1.7312,1.6214,1
1.7312,1.6391,1
1.7312,1.6480,1
1.7313,1.6649,1
1.7313,1.6746,1
1.7313,1.6834,1
1.7313,1.6867,1
1.7313,1.6883,1
1.7314,1.6875,1
1.7314,1.6875,1
1.7362,1.6786,1
1.7362,1.6722,1
1.7362,1.6601,1
1.7362,1.6496,1
1.7363,1.6367,1
1.7363,1.6295,1
1.7363,1.6230,1
1.7363,1.6190,1
1.7363,1.6190,1
1.7364,1.6182,1
1.7410,1.6278,1
1.7410,1.6335,1
1.7411,1.6512,1
1.7411,1.6633,1
1.7411,1.6697,1
1.7411,1.6770,1
1.7411,1.6834,1
1.7411,1.6851,1
1.7411,1.6842,1
1.7459,1.6834,1
1.7459,1.6770,1
1.7459,1.6722,1
1.7459,1.6593,1
1.7459,1.6472,1
1.7460,1.6415,1
1.7460,1.6311,1
1.7460,1.6149,1
1.7460,1.6077,1
1.7460,1.6109,1
1.7514,1.6166,1
1.7515,1.6295,1
1.7515,1.6375,1
1.7515,1.6488,1
1.7515,1.6657,1
1.7515,1.6738,1
1.7515,1.6810,1
1.7515,1.6834,1
1.7516,1.6842,1
1.7516,1.6834,1
1.7516,1.6810,1
1.7564,1.6738,1
1.7564,1.6689,1
1.7564,1.6577,1
1.7564,1.6504,1
1.7564,1.6359,1
1.7565,1.6270,1
1.7565,1.6190,1
1.7565,1.6149,1
1.7565,1.6166,1
1.7565,1.6158,1
1.7612,1.6238,1
1.7612,1.6319,1
1.7612,1.6456,1
1.7612,1.6593,1
1.7612,1.6697,1
1.7612,1.6794,1
1.7613,1.6859,1
1.7613,1.6867,1
1.7613,1.6859,1
1.7614,1.6851,1
1.7662,1.6786,1
1.7662,1.6714,1
1.7662,1.6609,1
1.7662,1.6528,1
1.7662,1.6415,1
1.7663,1.6311,1
1.7663,1.6141,1
1.7663,1.6141,1
1.7663,1.6085,1
1.7663,1.6117,1
1.7712,1.6222,1
1.7712,1.6375,1
1.7712,1.6472,1
1.7713,1.6625,1
1.7713,1.6722,1
1.7713,1.6786,1
1.7713,1.6842,1
1.7713,1.6826,1
1.7713,1.6851,1
1.7714,1.6834,1
1.7761,1.6762,1
1.7761,1.6705,1
1.7761,1.6601,1
1.7761,1.6496,1
1.7761,1.6399,1
1.7762,1.6295,1
1.7762,1.6230,1
1.7762,1.6149,1
1.7762,1.6158,1
1.7810,1.6158,1
1.7810,1.6262,1
1.7810,1.6335,1
1.7811,1.6440,1
1.7811,1.6577,1
1.7811,1.6657,1
1.7811,1.6778,1
1.7811,1.6826,1
1.7811,1.6851,1
1.7811,1.6859,1
1.7867,1.6859,1
1.7867,1.6786,1
1.7867,1.6689,1
1.7867,1.6593,1
1.7867,1.6544,1
1.7867,1.6407,1
1.7868,1.6286,1
1.7868,1.6133,1
1.7868,1.6077,1
1.7868,1.6085,1
1.7868,1.6133,1
1.7868,1.6222,1
1.7919,1.6311,1
1.7919,1.6472,1
1.7919,1.6617,1
1.7919,1.6697,1
1.7919,1.6794,1
1.7919,1.6802,1
1.7920,1.6818,1
1.7920,1.6842,1
1.7920,1.6778,1
1.7920,1.6762,1
1.7969,1.6697,1
1.7969,1.6593,1
1.7970,1.6480,1
1.7970,1.6375,1
1.7970,1.6286,1
1.7970,1.6222,1
1.7970,1.6141,1
1.7970,1.6133,1
1.7971,1.6141,1
1.7971,1.6238,1
1.8027,1.6311,1
1.8027,1.6440,1
1.8027,1.6568,1
1.8027,1.6657,1
1.8027,1.6778,1
1.8028,1.6834,1
1.8028,1.6851,1
1.8028,1.6867,1
1.8028,1.6826,1
1.8028,1.6778,1
1.8028,1.6714,1
1.8029,1.6601,1
1.8077,1.6520,1
1.8078,1.6432,1
1.8078,1.6246,1
1.8078,1.6198,1
1.8078,1.6141,1
1.8078,1.6109,1
1.8079,1.6149,1
1.8079,1.6238,1
1.8079,1.6375,1
1.8079,1.6480,1
1.8128,1.6633,1
1.8128,1.6730,1
1.8128,1.6786,1
1.8128,1.6859,1
1.8129,1.6834,1
1.8129,1.6851,1
1.8129,1.6818,1
1.8129,1.6762,1
1.8129,1.6697,1
1.8129,1.6585,1
1.8186,1.6480,1
1.8186,1.6335,1
1.8187,1.6343,1
1.8187,1.6190,1
1.8187,1.6093,1
1.8187,1.6133,1
1.8187,1.6166,1
1.8187,1.6238,1
1.8187,1.6319,1
1.8188,1.6448,1
1.8188,1.6593,1
1.8188,1.6681,1
1.8236,1.6802,1
1.8237,1.6826,1
1.8237,1.6859,1
1.8237,1.6883,1
1.8237,1.6851,1
1.8237,1.6786,1
1.8237,1.6714,1
1.8238,1.6665,1
1.8238,1.6552,1
1.8238,1.6407,1
1.8286,1.6303,1
1.8286,1.6133,1
1.8286,1.6093,1
1.8286,1.6085,1
1.8287,1.6141,1
1.8287,1.6262,1
1.8287,1.6367,1
1.8287,1.6536,1
1.8287,1.6665,1
1.8337,1.6738,1
1.8337,1.6842,1
1.8337,1.6875,1
1.8337,1.6899,1
1.8338,1.6867,1
1.8338,1.6859,1
1.8338,1.6778,1
1.8338,1.6794,1
1.8338,1.6593,1
1.8338,1.6488,1
1.8339,1.6375,1
1.8389,1.6295,1
1.8389,1.6238,1
1.8390,1.6166,1
1.8390,1.6198,1
1.8390,1.6190,1
1.8390,1.6295,1
1.8390,1.6375,1
1.8390,1.6488,1
1.8391,1.6593,1
1.8391,1.6738,1
1.8439,1.6794,1
1.8440,1.6867,1
1.8440,1.6923,1
1.8440,1.6891,1
1.8440,1.6875,1
1.8440,1.6818,1
1.8440,1.6738,1
1.8441,1.6657,1
1.8441,1.6544,1
1.8441,1.6391,1
1.8488,1.6238,1
1.8488,1.6190,1
1.8489,1.6133,1
1.8489,1.6093,1
1.8489,1.6158,1
1.8489,1.6238,1
1.8489,1.6383,1
1.8489,1.6504,1
1.8490,1.6657,1
1.8490,1.6754,1
1.8538,1.6818,1
1.8538,1.6875,1
1.8538,1.6851,1
1.8538,1.6859,1
1.8538,1.6440,1
1.8539,1.6818,1
1.8539,1.6746,1
1.8539,1.6625,1
1.8539,1.6520,1
1.8539,1.6383,1
1.8585,1.6295,1
1.8585,1.6198,1
1.8586,1.6286,1
1.8586,1.6117,1
1.8586,1.6158,1
1.8586,1.6238,1
1.8587,1.6303,1
1.8587,1.6440,1
1.8587,1.6577,1
1.8635,1.6689,1
1.8635,1.6754,1
1.8635,1.6834,1
1.8635,1.6851,1
1.8635,1.6875,1
1.8636,1.6834,1
1.8636,1.6778,1
1.8636,1.6689,1
1.8636,1.6633,1
1.8636,1.6488,1
1.8690,1.6375,1
1.8690,1.6270,1
1.8690,1.6141,1
1.8690,1.6061,1
1.8690,1.6085,1
1.8691,1.6109,1
1.8691,1.6222,1
1.8691,1.6399,1
1.8691,1.6456,1
1.8691,1.6593,1
1.8691,1.6697,1
1.8741,1.6802,1
1.8741,1.6810,1
1.8741,1.6818,1
1.8741,1.6818,1
1.8742,1.6786,1
1.8742,1.6762,1
1.8742,1.6641,1
1.8742,1.6568,1
1.8742,1.6472,1
1.8742,1.6343,1
1.8789,1.6254,1
1.8789,1.6166,1
1.8789,1.6101,1
1.8790,1.6117,1
1.8790,1.6149,1
1.8790,1.6198,1
1.8790,1.6311,1
1.8790,1.6456,1
1.8790,1.6568,1
1.8791,1.6649,1
1.8847,1.6738,1
1.8847,1.6810,1
1.8848,1.6834,1
1.8848,1.6818,1
1.8848,1.6802,1
1.8848,1.6746,1
1.8848,1.6673,1
1.8848,1.6552,1
1.8848,1.6472,1
1.8849,1.6351,1
1.8849,1.6206,1
1.8849,1.6133,1
1.8897,1.6029,1
1.8897,1.6069,1
1.8897,1.6117,1
1.8898,1.6222,1
1.8898,1.6367,1
1.8898,1.6480,1
1.8898,1.6633,1
1.8898,1.6722,1
1.8898,1.6786,1
1.8899,1.6810,1
1.8948,1.6786,1
1.8948,1.6834,1
1.8948,1.6786,1
1.8949,1.6754,1
1.8949,1.6705,1
1.8949,1.6593,1
1.8949,1.6512,1
1.8949,1.6351,1
1.8949,1.6262,1
1.8949,1.6174,1
1.9000,1.6512,1
1.9000,1.6101,1
1.9000,1.6101,1
1.9000,1.6206,1
1.9001,1.6278,1
1.9001,1.6423,1
1.9001,1.6560,1
1.9001,1.6665,1
1.9001,1.6770,1
1.9001,1.6834,1
1.9052,1.6867,1
1.9053,1.6883,1
1.9053,1.6834,1
1.9053,1.6794,1
1.9053,1.7004,1
1.9053,1.6560,1
1.9053,1.6504,1
1.9054,1.6375,1
1.9054,1.5932,1
1.9054,1.6182,1
1.9054,1.6182,1
1.9102,1.6141,1
1.9102,1.6133,1
1.9102,1.6254,1
1.9102,1.6230,1
1.9102,1.6512,1
1.9102,1.6552,1
1.9103,1.6770,1
1.9103,1.6818,1
1.9103,1.6867,1
1.9103,1.6859,1
1.9151,1.6875,1
1.9151,1.6818,1
1.9152,1.6762,1
1.9152,1.6689,1
1.9152,1.6577,1
1.9152,1.6730,1
1.9152,1.6303,1
1.9152,1.6230,1
1.9153,1.6174,1
1.9202,1.6117,1
1.9203,1.6125,1
1.9203,1.6077,1
1.9203,1.6238,1
1.9203,1.6230,1
1.9203,1.6464,1
1.9203,1.6585,1
1.9204,1.6681,1
1.9204,1.6778,1
1.9204,1.6875,1
1.9204,1.6899,1
1.9252,1.6883,1
1.9252,1.6754,1
1.9252,1.6786,1
1.9252,1.6754,1
1.9252,1.6657,1
1.9253,1.6681,1
1.9253,1.6399,1
1.9253,1.6262,1
1.9253,1.6149,1
1.9253,1.6029,1
1.9302,1.6077,1
1.9302,1.6133,1
1.9302,1.6246,1
1.9302,1.6375,1
1.9302,1.6488,1
1.9303,1.6601,1
1.9303,1.6746,1
1.9303,1.6851,1
1.9303,1.6810,1
1.9303,1.6851,1
1.9358,1.6851,1
1.9358,1.6818,1
1.9358,1.6754,1
1.9359,1.6689,1
1.9359,1.6577,1
1.9359,1.6738,1
1.9359,1.6343,1
1.9359,1.6488,1
1.9359,1.6133,1
1.9360,1.6166,1
1.9360,1.6133,1
1.9410,1.6117,1
1.9410,1.6230,1
1.9410,1.6254,1
1.9410,1.6456,1
1.9411,1.6585,1
1.9411,1.6681,1
1.9411,1.6794,1
1.9411,1.6842,1
1.9411,1.6722,1
1.9411,1.6931,1
1.9460,1.6834,1
1.9460,1.6842,1
1.9460,1.6762,1
1.9460,1.6681,1
1.9461,1.6617,1
1.9461,1.6456,1
1.9461,1.6319,1
1.9461,1.6198,1
1.9461,1.6222,1
1.9461,1.6093,1
1.9516,1.6125,1
1.9516,1.6262,1
1.9516,1.6286,1
1.9516,1.6480,1
1.9516,1.6617,1
1.9517,1.6722,1
1.9517,1.6818,1
1.9517,1.6842,1
1.9517,1.6851,1
1.9517,1.6859,1
1.9517,1.6818,1
1.9568,1.6786,1
1.9568,1.6730,1
1.9568,1.6568,1
1.9568,1.6432,1
1.9568,1.6335,1
1.9569,1.6383,1
1.9569,1.6190,1
1.9569,1.6141,1
1.9569,1.6133,1
1.9569,1.6149,1
1.9569,1.6222,1
1.9617,1.6335,1
1.9617,1.6448,1
1.9617,1.6593,1
1.9617,1.6681,1
1.9618,1.6794,1
1.9618,1.6826,1
1.9618,1.6867,1
1.9618,1.6842,1
1.9618,1.6851,1
1.9618,1.6746,1
1.9668,1.6681,1
1.9668,1.6593,1
1.9668,1.6496,1
1.9668,1.6383,1
1.9668,1.6399,1
1.9669,1.6125,1
1.9669,1.6109,1
1.9669,1.6077,1
1.9669,1.6093,1
1.9669,1.6222,1
1.9719,1.6375,1
1.9719,1.6456,1
1.9719,1.6641,1
1.9719,1.6705,1
1.9720,1.6770,1
1.9720,1.6818,1
1.9720,1.6834,1
1.9720,1.6826,1
1.9720,1.6786,1
1.9720,1.6754,1
1.9769,1.6681,1
1.9769,1.6552,1
1.9769,1.6472,1
1.9769,1.6375,1
1.9769,1.6278,1
1.9770,1.6198,1
1.9770,1.6012,1
1.9770,1.6149,1
1.9770,1.6230,1
1.9770,1.6270,1
1.9820,1.6343,1
1.9820,1.6448,1
1.9820,1.6609,1
1.9820,1.6673,1
1.9820,1.6472,1
1.9820,1.6851,1
1.9821,1.6859,1
1.9821,1.6907,1
1.9821,1.6859,1
1.9821,1.6810,1
1.9873,1.6601,1
1.9873,1.6649,1
1.9873,1.6504,1
1.9873,1.6407,1
1.9873,1.6278,1
1.9874,1.6174,1
1.9874,1.6117,1
1.9874,1.6085,1
1.9874,1.6141,1
1.9874,1.6254,1
1.9874,1.6262,1
1.9928,1.6520,1
1.9928,1.6641,1
1.9929,1.6730,1
1.9929,1.6818,1
1.9929,1.6842,1
1.9929,1.6842,1
1.9929,1.6859,1
1.9929,1.6818,1
1.9930,1.6778,1
1.9930,1.6649,1
1.9930,1.6593,1
1.9984,1.6504,1
1.9984,1.6407,1
1.9984,1.6351,1
1.9985,1.6222,1
1.9985,1.6174,1
1.9985,1.6182,1
1.9985,1.6254,1
1.9985,1.6278,1
1.9986,1.6423,1
1.9986,1.6496,1
1.9986,1.6464,1
2.0042,1.6738,1
2.0042,1.6786,1
2.0042,1.6859,1
2.0043,1.6923,1
2.0043,1.6907,1
2.0043,1.6851,1
2.0043,1.6810,1
2.0043,1.6834,1
2.0043,1.6633,1
2.0043,1.6536,1
2.0044,1.6391,1
2.0044,1.6278,1
2.0099,1.6158,1
2.0099,1.6125,1
2.0099,1.6101,1
2.0099,1.6149,1
2.0099,1.6262,1
2.0099,1.6407,1
2.0100,1.6504,1
2.0100,1.6617,1
2.0100,1.6754,1
2.0100,1.6834,1
2.0100,1.6875,1
2.0156,1.6883,1
2.0156,1.6875,1
2.0157,1.6818,1
2.0157,1.6802,1
2.0157,1.6714,1
2.0157,1.6593,1
2.0157,1.6552,1
2.0157,1.6383,1
2.0157,1.6327,1
2.0158,1.6222,1
2.0158,1.6149,1
2.0158,1.6149,1
2.0215,1.6480,1
2.0215,1.6246,1
2.0215,1.6311,1
2.0215,1.6464,1
2.0215,1.6617,1
2.0215,1.6673,1
2.0216,1.6770,1
2.0216,1.6834,1
2.0216,1.6899,1
2.0216,1.6867,1
2.0216,1.6875,1
2.0271,1.6818,1
2.0271,1.6738,1
2.0271,1.6689,1
2.0272,1.6552,1
2.0272,1.6440,1
2.0272,1.6359,1
2.0272,1.6198,1
2.0272,1.6149,1
2.0272,1.6125,1
2.0273,1.6141,1
2.0273,1.6262,1
2.0273,1.6295,1
2.0332,1.6496,1
2.0332,1.6665,1
2.0332,1.6762,1
2.0332,1.6859,1
2.0332,1.6883,1
2.0332,1.6851,1
2.0333,1.6859,1
2.0333,1.6867,1
2.0333,1.6802,1
2.0333,1.6657,1
2.0333,1.6593,1
2.0333,1.6488,1
2.0395,1.6375,1
2.0395,1.6295,1
2.0395,1.6190,1
2.0395,1.6158,1
2.0395,1.6182,1
2.0396,1.6158,1
2.0396,1.6254,1
2.0396,1.6335,1
2.0396,1.6456,1
2.0396,1.6577,1
2.0396,1.6681,1
2.0396,1.6786,1
2.0455,1.6842,1
2.0455,1.6867,1
2.0455,1.6883,1
2.0455,1.6826,1
2.0455,1.6746,1
2.0456,1.6681,1
2.0456,1.6625,1
2.0456,1.6496,1
2.0456,1.6407,1
2.0456,1.6286,1
2.0456,1.6125,1
2.0457,1.6117,1
2.0523,1.6101,1
2.0524,1.6149,1
2.0524,1.6262,1
2.0524,1.6375,1
2.0524,1.6488,1
2.0524,1.6633,1
2.0524,1.6746,1
2.0524,1.6786,1
2.0525,1.6859,1
2.0525,1.6867,1
2.0525,1.6859,1
2.0525,1.6818,1
2.0525,1.6770,1
2.0525,1.6689,1
2.0587,1.6577,1
2.0587,1.6496,1
2.0587,1.6367,1
2.0587,1.6278,1
2.0587,1.6222,1
2.0587,1.6166,1
2.0587,1.6182,1
2.0588,1.6174,1
2.0588,1.6295,1
2.0588,1.6351,1
2.0588,1.6512,1
2.0588,1.6609,1
2.0589,1.6722,1
2.0650,1.6786,1
2.0651,1.6883,1
2.0651,1.6891,1
2.0651,1.6891,1
2.0651,1.6834,1
2.0651,1.6794,1
2.0651,1.6697,1
2.0652,1.6641,1
2.0652,1.6528,1
2.0652,1.6391,1
2.0652,1.6270,1
2.0652,1.6133,1
2.0717,1.6109,1
2.0717,1.6117,1
2.0717,1.6158,1
2.0717,1.6286,1
2.0718,1.6375,1
2.0718,1.6504,1
2.0718,1.6657,1
2.0718,1.6730,1
2.0718,1.6834,1
2.0719,1.6851,1
2.0719,1.6842,1
2.0719,1.6875,1
2.0719,1.6963,1
2.0719,1.6746,1
2.0782,1.6681,1
2.0782,1.6577,1
2.0782,1.6496,1
2.0782,1.6343,1
2.0782,1.6278,1
2.0782,1.6206,1
2.0783,1.6125,1
2.0783,1.6158,1
2.0783,1.6166,1
2.0783,1.6254,1
2.0783,1.6351,1
2.0783,1.6464,1
2.0784,1.6601,1
2.0845,1.6714,1
2.0845,1.6786,1
2.0846,1.6851,1
2.0846,1.6891,1
2.0846,1.6899,1
2.0846,1.6851,1
2.0846,1.6810,1
2.0846,1.6714,1
2.0846,1.6649,1
2.0847,1.6504,1
2.0847,1.6399,1
2.0847,1.6286,1
2.0911,1.6158,1
2.0911,1.6117,1
2.0911,1.6101,1
2.0911,1.6125,1
2.0912,1.6278,1
2.0912,1.6391,1
2.0912,1.6496,1
2.0912,1.6649,1
2.0912,1.6746,1
2.0912,1.6818,1
2.0913,1.6867,1
2.0913,1.6834,1
2.0913,1.6859,1
2.0913,1.6778,1
2.0978,1.6762,1
2.0978,1.6705,1
2.0978,1.6585,1
2.0978,1.6488,1
2.0979,1.6367,1
2.0979,1.6270,1
2.0979,1.6182,1
2.0979,1.6141,1
2.0979,1.6133,1
2.0979,1.6190,1
2.0980,1.6246,1
2.0980,1.6327,1
2.0980,1.6440,1
2.1053,1.6568,1
2.1053,1.6665,1
2.1054,1.6762,1
2.1054,1.6810,1
2.1054,1.6826,1
2.1054,1.6851,1
2.1054,1.6834,1
2.1054,1.6770,1
2.1055,1.6697,1
2.1055,1.6641,1
2.1055,1.6504,1
2.1055,1.6407,1
2.1055,1.6270,1
2.1055,1.6166,1
2.1055,1.6117,1
2.1125,1.6117,1
2.1125,1.6117,1
2.1125,1.6246,1
2.1125,1.6351,1
2.1125,1.6520,1
2.1126,1.6633,1
2.1126,1.6730,1
2.1126,1.6802,1
2.1126,1.6851,1
2.1126,1.6859,1
2.1126,1.6842,1
2.1126,1.6818,1
2.1127,1.6770,1
2.1127,1.6681,1
2.1202,1.6577,1
2.1202,1.6488,1
2.1202,1.6375,1
2.1202,1.6295,1
2.1202,1.6230,1
2.1202,1.6198,1
2.1203,1.6174,1
2.1203,1.6166,1
2.1203,1.6254,1
2.1203,1.6343,1
2.1203,1.6472,1
2.1204,1.6609,1
2.1204,1.6746,1
2.1204,1.6818,1
2.1204,1.6834,1
2.1204,1.6915,1
2.1277,1.6867,1
2.1277,1.6826,1
2.1277,1.6786,1
2.1277,1.6705,1
2.1277,1.6641,1
2.1278,1.6544,1
2.1278,1.6391,1
2.1278,1.6278,1
2.1278,1.6141,1
2.1278,1.6077,1
2.1279,1.6061,1
2.1279,1.6125,1
2.1279,1.6254,1
2.1279,1.6383,1
2.1279,1.6488,1
2.1350,1.6641,1
2.1350,1.6722,1
2.1350,1.6810,1
2.1350,1.6851,1
2.1350,1.6826,1
2.1351,1.6834,1
2.1351,1.6770,1
2.1351,1.6786,1
2.1351,1.6689,1
2.1351,1.6568,1
2.1351,1.6472,1
2.1352,1.6335,1
2.1352,1.6270,1
2.1352,1.6174,1
2.1424,1.6133,1
2.1424,1.6158,1
2.1424,1.6166,1
2.1424,1.6262,1
2.1424,1.6295,1
2.1425,1.6440,1
2.1425,1.6601,1
2.1425,1.6681,1
2.1425,1.6762,1
2.1425,1.6851,1
2.1425,1.6907,1
2.1426,1.6891,1
2.1426,1.6842,1
2.1426,1.6802,1
2.1426,1.6689,1
2.1497,1.6641,1
2.1497,1.6536,1
2.1498,1.6391,1
2.1498,1.6254,1
2.1498,1.6133,1
2.1498,1.6093,1
2.1498,1.6101,1
2.1498,1.6109,1
2.1499,1.6238,1
2.1499,1.6367,1
2.1499,1.6472,1
2.1499,1.6617,1
2.1499,1.6730,1
2.1499,1.6851,1
2.1500,1.6891,1
2.1571,1.6907,1
2.1571,1.6875,1
2.1571,1.6851,1
2.1572,1.6778,1
2.1572,1.6705,1
2.1572,1.6585,1
2.1572,1.6488,1
2.1572,1.6407,1
2.1572,1.6295,1
2.1573,1.6238,1
2.1573,1.6158,1
2.1573,1.6158,1
2.1573,1.6214,1
2.1573,1.6303,1
2.1573,1.6335,1
2.1645,1.6488,1
2.1645,1.6601,1
2.1645,1.6705,1
2.1645,1.6762,1
2.1645,1.6826,1
2.1645,1.6891,1
2.1646,1.6867,1
2.1646,1.6810,1
2.1646,1.6786,1
2.1646,1.6730,1
2.1646,1.6641,1
2.1646,1.6544,1
2.1647,1.6399,1
2.1647,1.6270,1
2.1726,1.6166,1
2.1727,1.6037,1
2.1727,1.6085,1
2.1727,1.6141,1
2.1727,1.6278,1
2.1727,1.6375,1
2.1727,1.6488,1
2.1728,1.6633,1
2.1728,1.6746,1
2.1728,1.6786,1
2.1728,1.6834,1
2.1728,1.6810,1
2.1728,1.6851,1
2.1729,1.6762,1
2.1729,1.6770,1
2.1729,1.6697,1
2.1729,1.6560,1
2.1804,1.6480,1
2.1805,1.6327,1
2.1805,1.6246,1
2.1805,1.6174,1
2.1805,1.6206,1
2.1805,1.6166,1
2.1806,1.6166,1
2.1806,1.6262,1
2.1806,1.6335,1
2.1806,1.6440,1
2.1806,1.6585,1
2.1806,1.6697,1
2.1806,1.6770,1
2.1807,1.6810,1
2.1807,1.6875,1
2.1884,1.6851,1
2.1884,1.6826,1
2.1884,1.6770,1
2.1884,1.6722,1
2.1885,1.6649,1
2.1885,1.6520,1
2.1885,1.6391,1
2.1885,1.6262,1
2.1885,1.6174,1
2.1885,1.6109,1
2.1886,1.6117,1
2.1886,1.6125,1
2.1886,1.6278,1
2.1886,1.6391,1
2.1886,1.6520,1
2.1886,1.6657,1
2.1960,1.6770,1
2.1960,1.6826,1
2.1960,1.6859,1
2.1960,1.6875,1
2.1960,1.6851,1
2.1961,1.6842,1
2.1961,1.6762,1
2.1961,1.6689,1
2.1961,1.6585,1
2.1961,1.6488,1
2.1961,1.6383,1
2.1962,1.6278,1
2.1962,1.6190,1
2.1962,1.6166,1
2.1962,1.6166,1
2.2043,1.6174,1
2.2043,1.6278,1
2.2043,1.6343,1
2.2043,1.6456,1
2.2044,1.6593,1
2.2044,1.6681,1
2.2044,1.6826,1
2.2044,1.6875,1
2.2044,1.6842,1
2.2044,1.6875,1
2.2045,1.6810,1
2.2045,1.6778,1
2.2045,1.6689,1
2.2045,1.6625,1
2.2045,1.6528,1
2.2045,1.6407,1
2.2046,1.6286,1
2.2122,1.6182,1
2.2122,1.6141,1
2.2122,1.6149,1
2.2122,1.6230,1
2.2123,1.6270,1
2.2123,1.6415,1
2.2123,1.6528,1
2.2123,1.6657,1
2.2123,1.6738,1
2.2123,1.6826,1
2.2124,1.6859,1
2.2124,1.6859,1
2.2124,1.6883,1
2.2124,1.6834,1
2.2124,1.6786,1
2.2124,1.6705,1
2.2207,1.6617,1
2.2207,1.6512,1
2.2207,1.6383,1
2.2207,1.6303,1
2.2207,1.6238,1
2.2208,1.6174,1
2.2208,1.6214,1
2.2208,1.6182,1
2.2208,1.6295,1
2.2208,1.6415,1
2.2208,1.6504,1
2.2209,1.6601,1
2.2209,1.6722,1
2.2209,1.6778,1
2.2209,1.6834,1
2.2209,1.6907,1
2.2209,1.6867,1
2.2284,1.6931,1
2.2284,1.6794,1
2.2284,1.6689,1
2.2285,1.6633,1
2.2285,1.6488,1
2.2285,1.6375,1
2.2285,1.6246,1
2.2285,1.6141,1
2.2285,1.6085,1
2.2286,1.6125,1
2.2286,1.6061,1
2.2286,1.6262,1
2.2286,1.6391,1
2.2286,1.6536,1
2.2286,1.6697,1
2.2362,1.6786,1
2.2362,1.6867,1
2.2363,1.6907,1
2.2363,1.6923,1
2.2363,1.6931,1
2.2363,1.6834,1
2.2363,1.6754,1
2.2363,1.6681,1
2.2364,1.6560,1
2.2364,1.6456,1
2.2364,1.6367,1
2.2364,1.6278,1
2.2364,1.6206,1
2.2364,1.6133,1
2.2365,1.6166,1
2.2365,1.6182,1
2.2443,1.6295,1
2.2443,1.6343,1
2.2443,1.6520,1
2.2443,1.6625,1
2.2443,1.6730,1
2.2444,1.6802,1
2.2444,1.6891,1
2.2444,1.6915,1
2.2444,1.6891,1
2.2444,1.6867,1
2.2444,1.6818,1
2.2445,1.6714,1
2.2445,1.6657,1
2.2445,1.6552,1
2.2445,1.6391,1
2.2445,1.6286,1
2.2522,1.6198,1
2.2522,1.6133,1
2.2522,1.6133,1
2.2522,1.6198,1
2.2522,1.6270,1
2.2523,1.6415,1
2.2523,1.6528,1
2.2523,1.6649,1
2.2523,1.6746,1
2.2523,1.6818,1
2.2523,1.6851,1
2.2524,1.6867,1
2.2524,1.6851,1
2.2524,1.6834,1
2.2524,1.6786,1
2.2524,1.6730,1
2.2602,1.6593,1
2.2602,1.6480,1
2.2602,1.6367,1
2.2603,1.6319,1
2.2603,1.6190,1
2.2603,1.6166,1
2.2603,1.6141,1
2.2603,1.6166,1
2.2604,1.6295,1
2.2604,1.6359,1
2.2604,1.6480,1
2.2604,1.6609,1
2.2604,1.6697,1
2.2604,1.6778,1
2.2605,1.6842,1
2.2605,1.6842,1
2.2683,1.6859,1
2.2683,1.6842,1
2.2683,1.6786,1
2.2683,1.6714,1
2.2684,1.6641,1
2.2684,1.6544,1
2.2684,1.6375,1
2.2684,1.6262,1
2.2684,1.6141,1
2.2684,1.5956,1
2.2685,1.6021,1
2.2685,1.6109,1
2.2685,1.6206,1
2.2685,1.6351,1
2.2685,1.6464,1
2.2685,1.6601,1
2.2765,1.6730,1
2.2766,1.6423,1
2.2766,1.6907,1
2.2766,1.6915,1
2.2766,1.6883,1
2.2766,1.6867,1
2.2767,1.6786,1
2.2767,1.6697,1
2.2767,1.6577,1
2.2767,1.6448,1
2.2767,1.6343,1
2.2767,1.6536,1
2.2768,1.6166,1
2.2768,1.6101,1
2.2768,1.6109,1
2.2768,1.6158,1
2.2768,1.6214,1
2.2846,1.6311,1
2.2847,1.6423,1
2.2847,1.6568,1
2.2847,1.6657,1
2.2847,1.6762,1
2.2847,1.6818,1
2.2847,1.6834,1
2.2848,1.6851,1
2.2848,1.6818,1
2.2848,1.6762,1
2.2848,1.7237,1
2.2848,1.6593,1
2.2848,1.6512,1
2.2849,1.6343,1
2.2849,1.6246,1
2.2849,1.6109,1
2.2930,1.6093,1
2.2930,1.6085,1
2.2930,1.6125,1
2.2930,1.6270,1
2.2930,1.6222,1
2.2930,1.6512,1
2.2931,1.6786,1
2.2931,1.6746,1
2.2931,1.6851,1
2.2931,1.6859,1
2.2931,1.6891,1
2.2931,1.6859,1
2.2932,1.6826,1
2.2932,1.6754,1
2.2932,1.6665,1
2.2932,1.6552,1
2.3012,1.6496,1
2.3012,1.6319,1
2.3012,1.6270,1
2.3012,1.6182,1
2.3012,1.6319,1
2.3012,1.6141,1
2.3013,1.6133,1
2.3013,1.6238,1
2.3013,1.6319,1
2.3013,1.6456,1
2.3013,1.6601,1
2.3013,1.6665,1
2.3014,1.6738,1
2.3014,1.6826,1
2.3014,1.6883,1
2.3014,1.6891,1
2.3014,1.6859,1
2.3094,1.6802,1
2.3095,1.6705,1
2.3095,1.6657,1
2.3095,1.6512,1
2.3095,1.6432,1
2.3095,1.6214,1
2.3096,1.6190,1
2.3096,1.6117,1
2.3096,1.6117,1
2.3096,1.6206,1
2.3096,1.6254,1
2.3096,1.6311,1
2.3096,1.6528,1
2.3097,1.6649,1
2.3097,1.6738,1
2.3097,1.6826,1
2.3177,1.6851,1
2.3177,1.6802,1
2.3177,1.6851,1
2.3178,1.6842,1
2.3178,1.6762,1
2.3178,1.6319,1
2.3178,1.6585,1
2.3178,1.6456,1
2.3178,1.6351,1
2.3179,1.6383,1
2.3179,1.6182,1
2.3179,1.6109,1
2.3179,1.6133,1
2.3179,1.6053,1
2.3179,1.6270,1
2.3180,1.6319,1
2.3180,1.6504,1
2.3261,1.6472,1
2.3261,1.6714,1
2.3261,1.6633,1
2.3261,1.6875,1
2.3261,1.6899,1
2.3261,1.6875,1
2.3262,1.6794,1
2.3262,1.6754,1
2.3262,1.6665,1
2.3262,1.6625,1
2.3262,1.6520,1
2.3262,1.6391,1
2.3263,1.6238,1
2.3263,1.6117,1
2.3263,1.6093,1
2.3263,1.6077,1
2.3263,1.6158,1
2.3345,1.6214,1
2.3345,1.6327,1
2.3345,1.6488,1
2.3345,1.6609,1
2.3345,1.6714,1
2.3346,1.6818,1
2.3346,1.6859,1
2.3346,1.6883,1
2.3346,1.6859,1
2.3346,1.6818,1
2.3346,1.6770,1
2.3347,1.6722,1
2.3347,1.6601,1
2.3347,1.6536,1
2.3347,1.6399,1
2.3347,1.6303,1
2.3429,1.6246,1
2.3430,1.6190,1
2.3430,1.6166,1
2.3430,1.6190,1
2.3430,1.6270,1
2.3430,1.6327,1
2.3431,1.6488,1
2.3431,1.6593,1
2.3431,1.6722,1
2.3431,1.6810,1
2.3431,1.6891,1
2.3432,1.6883,1
2.3432,1.6851,1
2.3432,1.6818,1
2.3432,1.6770,1
2.3432,1.7028,1
2.3432,1.6601,1
2.3514,1.6488,1
2.3514,1.6359,1
2.3514,1.6286,1
2.3515,1.6158,1
2.3515,1.6125,1
2.3515,1.6109,1
2.3515,1.6238,1
2.3515,1.6262,1
2.3515,1.6383,1
2.3516,1.6528,1
2.3516,1.6335,1
2.3516,1.6786,1
2.3516,1.6891,1
2.3516,1.6915,1
2.3516,1.6907,1
2.3517,1.6988,1
2.3517,1.6979,1
2.3599,1.6786,1
2.3599,1.6681,1
2.3599,1.6601,1
2.3599,1.6568,1
2.3599,1.6367,1
2.3600,1.6262,1
2.3600,1.6214,1
2.3600,1.6166,1
2.3600,1.6125,1
2.3600,1.6174,1
2.3600,1.6270,1
2.3601,1.6343,1
2.3601,1.6488,1
2.3601,1.6609,1
2.3601,1.6705,1
2.3601,1.6762,1
2.3601,1.6834,1
2.3684,1.6794,1
2.3684,1.6899,1
2.3684,1.6859,1
2.3684,1.6826,1
2.3684,1.6697,1
2.3684,1.6633,1
2.3685,1.6472,1
2.3685,1.6399,1
2.3685,1.6214,1
2.3685,1.6158,1
2.3685,1.6182,1
2.3685,1.6109,1
2.3686,1.6198,1
2.3686,1.6270,1
2.3686,1.6560,1
2.3686,1.6504,1
2.3686,1.6867,1
2.3771,1.6722,1
2.3771,1.6786,1
2.3771,1.6826,1
2.3772,1.6851,1
2.3772,1.6818,1
2.3772,1.6818,1
2.3772,1.6730,1
2.3772,1.6593,1
2.3773,1.6585,1
2.3773,1.6472,1
2.3773,1.6375,1
2.3773,1.6278,1
2.3773,1.6246,1
2.3773,1.6149,1
2.3774,1.6198,1
2.3774,1.6037,1
2.3774,1.6327,1
2.3774,1.6440,1
2.3857,1.6488,1
2.3857,1.6641,1
2.3857,1.6746,1
2.3857,1.6818,1
2.3857,1.6842,1
2.3858,1.6834,1
2.3858,1.6867,1
2.3858,1.6834,1
2.3858,1.6786,1
2.3858,1.6786,1
2.3858,1.6633,1
2.3859,1.6520,1
2.3859,1.6367,1
2.3859,1.6238,1
2.3859,1.6133,1
2.3859,1.6971,1
2.3859,1.6037,1
2.3944,1.6101,1
2.3944,1.6190,1
2.3944,1.6295,1
2.3944,1.6464,1
2.3945,1.6625,1
2.3945,1.6705,1
2.3945,1.6786,1
2.3945,1.6842,1
2.3945,1.6891,1
2.3945,1.6867,1
2.3946,1.6842,1
2.3946,1.6802,1
2.3946,1.6754,1
2.3946,1.6601,1
2.3946,1.6512,1
2.3946,1.6407,1
2.3947,1.6295,1
2.4032,1.6214,1
2.4032,1.6182,1
2.4032,1.6190,1
2.4033,1.6617,1
2.4033,1.6270,1
2.4033,1.6343,1
2.4033,1.6480,1
2.4033,1.6222,1
2.4034,1.6754,1
2.4034,1.6826,1
2.4034,1.6883,1
2.4034,1.6963,1
2.4034,1.6883,1
2.4034,1.6689,1
2.4035,1.6802,1
2.4035,1.6665,1
2.4035,1.6641,1
2.4035,1.6552,1
2.4120,1.6399,1
2.4121,1.6230,1
2.4121,1.6125,1
2.4121,1.6077,1
2.4121,1.6085,1
2.4121,1.6174,1
2.4121,1.6230,1
2.4122,1.6407,1
2.4122,1.6504,1
2.4122,1.6601,1
2.4122,1.6697,1
2.4122,1.6859,1
2.4122,1.6834,1
2.4123,1.6810,1
2.4123,1.6834,1
2.4123,1.6818,1
2.4123,1.6754,1
2.4123,1.6697,1
2.4213,1.6585,1
2.4213,1.6488,1
2.4213,1.6335,1
2.4213,1.6270,1
2.4213,1.6174,1
2.4214,1.6158,1
2.4214,1.6182,1
2.4214,1.6158,1
2.4214,1.6262,1
2.4214,1.6343,1
2.4214,1.6448,1
2.4214,1.6585,1
2.4215,1.6722,1
2.4215,1.7318,1
2.4215,1.6778,1
2.4215,1.6818,1
2.4215,1.6834,1
2.4215,1.6778,1
2.4300,1.6722,1
2.4300,1.6657,1
2.4300,1.6593,1
2.4300,1.6496,1
2.4300,1.6343,1
2.4300,1.6133,1
2.4301,1.6141,1
2.4301,1.6117,1
2.4301,1.6109,1
2.4301,1.6198,1
2.4301,1.6270,1
2.4301,1.6399,1
2.4301,1.6512,1
2.4302,1.6625,1
2.4302,1.6738,1
2.4302,1.6826,1
2.4302,1.6859,1
2.4392,1.6875,1
2.4392,1.6859,1
2.4393,1.6834,1
2.4393,1.6746,1
2.4393,1.6673,1
2.4393,1.6552,1
2.4393,1.6464,1
2.4393,1.6327,1
2.4394,1.6270,1
2.4394,1.6174,1
2.4394,1.6158,1
2.4394,1.6109,1
2.4394,1.6158,1
2.4394,1.6262,1
2.4395,1.6391,1
2.4395,1.6448,1
2.4395,1.6577,1
2.4395,1.6705,1
2.4395,1.6738,1
2.4481,1.6818,1
2.4481,1.6859,1
2.4481,1.6851,1
2.4481,1.6818,1
2.4481,1.6786,1
2.4482,1.6681,1
2.4482,1.6641,1
2.4482,1.6520,1
2.4482,1.6407,1
2.4482,1.6254,1
2.4482,1.6149,1
2.4483,1.6141,1
2.4483,1.6117,1
2.4483,1.6198,1
2.4483,1.6246,1
2.4483,1.6391,1
2.4483,1.6512,1
2.4484,1.6657,1
2.4578,1.6730,1
2.4579,1.6842,1
2.4579,1.6859,1
2.4579,1.6867,1
2.4579,1.6842,1
2.4579,1.6851,1
2.4579,1.6770,1
2.4580,1.6697,1
2.4580,1.6560,1
2.4580,1.6464,1
2.4580,1.6367,1
2.4580,1.6359,1
2.4580,1.6190,1
2.4580,1.6141,1
2.4581,1.6174,1
2.4581,1.6174,1
2.4581,1.6262,1
2.4581,1.6335,1
2.4581,1.6504,1
2.4669,1.6593,1
2.4669,1.6714,1
2.4669,1.6754,1
2.4669,1.6867,1
2.4669,1.6859,1
2.4669,1.6851,1
2.4670,1.6826,1
2.4670,1.6770,1
2.4670,1.6705,1
2.4670,1.6625,1
2.4670,1.6528,1
2.4670,1.6375,1
2.4670,1.6254,1
2.4671,1.6149,1
2.4671,1.6101,1
2.4671,1.6109,1
2.4671,1.6198,1
2.4671,1.6254,1
2.4765,1.6391,1
2.4765,1.6512,1
2.4765,1.6633,1
2.4765,1.6794,1
2.4766,1.6810,1
2.4766,1.6851,1
2.4766,1.6834,1
2.4766,1.6842,1
2.4766,1.6818,1
2.4766,1.6770,1
2.4766,1.6681,1
2.4767,1.6577,1
2.4767,1.6496,1
2.4767,1.6375,1
2.4767,1.6262,1
2.4767,1.6222,1
2.4767,1.6149,1
2.4768,1.6198,1
2.4768,1.6182,1
2.4768,1.6286,1
2.4855,1.6359,1
2.4855,1.6488,1
2.4855,1.6601,1
2.4855,1.6754,1
2.4855,1.6818,1
2.4856,1.6899,1
2.4856,1.6899,1
2.4856,1.6883,1
2.4856,1.6834,1
2.4856,1.6794,1
2.4856,1.6770,1
2.4856,1.6625,1
2.4857,1.6512,1
2.4857,1.6359,1
2.4857,1.6246,1
2.4857,1.6133,1
2.4857,1.6085,1
2.4944,1.6093,1
2.4945,1.6182,1
2.4945,1.6238,1
2.4945,1.6359,1
2.4945,1.6488,1
2.4945,1.6609,1
2.4946,1.6746,1
2.4946,1.6794,1
2.4946,1.6859,1
2.4946,1.6859,1
2.4946,1.6851,1
2.4946,1.6834,1
2.4946,1.6770,1
2.4947,1.6681,1
2.4947,1.6577,1
2.4947,1.6464,1
2.4947,1.6359,1
2.4947,1.6295,1
2.5035,1.6166,1
2.5035,1.6141,1
2.5035,1.6141,1
2.5035,1.6222,1
2.5035,1.6270,1
2.5035,1.6407,1
2.5036,1.6480,1
2.5036,1.6593,1
2.5036,1.6714,1
2.5036,1.6746,1
2.5036,1.6859,1
2.5036,1.6875,1
2.5036,1.6875,1
2.5037,1.6851,1
2.5037,1.6818,1
2.5037,1.6738,1
2.5037,1.6633,1
2.5037,1.6544,1
2.5126,1.6407,1
2.5127,1.6262,1
2.5127,1.6166,1
2.5127,1.6117,1
2.5127,1.6133,1
2.5127,1.6206,1
2.5127,1.6295,1
2.5128,1.6456,1
2.5128,1.6528,1
2.5128,1.6697,1
2.5128,1.6762,1
2.5128,1.6867,1
2.5128,1.6867,1
2.5129,1.6875,1
2.5129,1.6883,1
2.5129,1.6826,1
2.5129,1.6802,1
2.5129,1.6689,1
2.5129,1.6601,1
2.5222,1.6496,1
2.5222,1.6383,1
2.5222,1.6303,1
2.5222,1.6230,1
2.5223,1.6158,1
2.5223,1.6190,1
2.5223,1.6214,1
2.5223,1.6295,1
2.5223,1.6415,1
2.5223,1.6488,1
2.5224,1.6609,1
2.5224,1.6730,1
2.5224,1.6810,1
2.5224,1.6851,1
2.5224,1.6883,1
2.5224,1.6851,1
2.5225,1.6826,1
2.5225,1.6794,1
2.5225,1.6689,1
2.5315,1.6633,1
2.5315,1.6504,1
2.5315,1.6423,1
2.5315,1.6262,1
2.5315,1.6141,1
2.5315,1.6109,1
2.5316,1.6125,1
2.5316,1.6190,1
2.5316,1.6262,1
2.5316,1.6399,1
2.5316,1.6504,1
2.5316,1.6641,1
2.5316,1.6738,1
2.5317,1.6834,1
2.5317,1.6859,1
2.5317,1.6875,1
2.5317,1.6842,1
2.5317,1.6810,1
2.5410,1.6762,1
2.5410,1.6689,1
2.5410,1.6568,1
2.5410,1.6617,1
2.5410,1.6343,1
2.5410,1.6278,1
2.5411,1.6214,1
2.5411,1.6149,1
2.5411,1.6174,1
2.5411,1.6190,1
2.5411,1.6278,1
2.5411,1.6335,1
2.5412,1.6480,1
2.5412,1.6577,1
2.5412,1.6754,1
2.5412,1.6802,1
2.5412,1.6867,1
2.5412,1.6899,1
2.5413,1.6883,1
2.5413,1.6875,1
2.5502,1.6802,1
2.5502,1.6746,1
2.5502,1.6665,1
2.5502,1.6536,1
2.5502,1.6440,1
2.5502,1.6254,1
2.5503,1.6149,1
2.5503,1.6109,1
2.5503,1.6117,1
2.5503,1.6182,1
2.5503,1.6278,1
2.5503,1.6399,1
2.5504,1.6528,1
2.5504,1.6641,1
2.5504,1.6730,1
2.5504,1.6818,1
2.5504,1.6842,1
2.5504,1.6875,1
2.5594,1.6859,1
2.5594,1.6842,1
2.5594,1.6786,1
2.5595,1.6722,1
2.5595,1.6593,1
2.5595,1.6496,1
2.5595,1.6391,1
2.5595,1.6327,1
2.5595,1.6182,1
2.5596,1.6141,1
2.5596,1.6149,1
2.5596,1.6133,1
2.5596,1.6254,1
2.5596,1.6327,1
2.5596,1.6456,1
2.5597,1.6617,1
2.5597,1.6722,1
2.5597,1.6770,1
2.5686,1.6851,1
2.5686,1.6891,1
2.5686,1.6859,1
2.5686,1.6810,1
2.5686,1.6786,1
2.5687,1.6681,1
2.5687,1.6625,1
2.5687,1.6512,1
2.5687,1.6391,1
2.5687,1.6238,1
2.5687,1.6117,1
2.5688,1.6109,1
2.5688,1.6117,1
2.5688,1.6190,1
2.5688,1.6270,1
2.5688,1.6432,1
2.5688,1.6504,1
2.5689,1.6641,1
2.5689,1.6738,1
2.5780,1.6851,1
2.5780,1.6826,1
2.5780,1.6842,1
2.5780,1.6826,1
2.5780,1.6786,1
2.5781,1.6738,1
2.5781,1.6641,1
2.5781,1.6544,1
2.5781,1.6440,1
2.5781,1.6327,1
2.5782,1.6270,1
2.5782,1.6198,1
2.5782,1.6174,1
2.5782,1.6182,1
2.5782,1.6222,1
2.5782,1.6303,1
2.5783,1.6399,1
2.5783,1.6504,1
2.5783,1.6641,1
2.5872,1.6714,1
2.5872,1.6794,1
2.5873,1.6851,1
2.5873,1.6851,1
2.5873,1.6851,1
2.5873,1.6842,1
2.5873,1.6762,1
2.5873,1.6730,1
2.5873,1.6665,1
2.5874,1.6544,1
2.5874,1.6383,1
2.5874,1.6254,1
2.5874,1.6125,1
2.5874,1.6109,1
2.5874,1.6109,1
2.5875,1.6166,1
2.5875,1.6230,1
2.5875,1.6399,1
2.5967,1.6512,1
2.5967,1.6649,1
2.5968,1.6746,1
2.5968,1.6842,1
2.5968,1.6875,1
2.5968,1.6859,1
2.5968,1.6851,1
2.5968,1.6818,1
2.5968,1.6794,1
2.5969,1.6705,1
2.5969,1.6593,1
2.5969,1.6488,1
2.5969,1.6375,1
2.5969,1.6270,1
2.5969,1.6190,1
2.5970,1.6174,1
2.5970,1.6182,1
2.5970,1.6166,1
2.5970,1.6278,1
2.6069,1.6383,1
2.6069,1.6488,1
2.6069,1.6601,1
2.6069,1.6697,1
2.6069,1.6778,1
2.6069,1.6851,1
2.6070,1.6875,1
2.6070,1.6867,1
2.6070,1.6802,1
2.6070,1.6770,1
2.6070,1.6738,1
2.6070,1.6649,1
2.6070,1.6520,1
2.6071,1.6391,1
2.6071,1.6311,1
2.6071,1.6158,1
2.6071,1.6125,1
2.6071,1.6117,1
2.6071,1.6198,1
2.6071,1.6278,1
2.6164,1.6415,1
2.6165,1.6512,1
2.6165,1.6649,1
2.6165,1.6802,1
2.6165,1.6818,1
2.6165,1.6859,1
2.6165,1.6867,1
2.6165,1.6875,1
2.6166,1.6834,1
2.6166,1.6778,1
2.6166,1.6697,1
2.6166,1.6585,1
2.6166,1.6504,1
2.6166,1.6367,1
2.6166,1.6295,1
2.6167,1.6198,1
2.6167,1.6166,1
2.6167,1.6174,1
2.6167,1.6182,1
2.6261,1.6278,1
2.6261,1.6399,1
2.6261,1.6520,1
2.6261,1.6601,1
2.6261,1.6689,1
2.6262,1.6794,1
2.6262,1.6810,1
2.6262,1.6851,1
2.6262,1.6842,1
2.6262,1.6915,1
2.6262,1.6746,1
2.6263,1.6722,1
2.6263,1.6593,1
2.6263,1.6496,1
2.6263,1.6383,1
2.6263,1.6238,1
2.6263,1.6166,1
2.6264,1.6238,1
2.6264,1.6109,1
2.6264,1.6149,1
2.6356,1.6254,1
2.6356,1.6391,1
2.6357,1.6496,1
2.6357,1.6673,1
2.6357,1.6738,1
2.6357,1.6810,1
2.6357,1.6842,1
2.6357,1.6867,1
2.6358,1.6867,1
2.6358,1.6826,1
2.6358,1.6770,1
2.6358,1.6681,1
2.6358,1.6568,1
2.6358,1.6480,1
2.6359,1.6359,1
2.6359,1.6286,1
2.6359,1.6198,1
2.6359,1.6174,1
2.6359,1.6174,1
2.6453,1.6214,1
2.6453,1.6286,1
2.6453,1.6327,1
2.6453,1.6488,1
2.6454,1.6601,1
2.6454,1.6730,1
2.6454,1.6778,1
2.6454,1.6875,1
2.6454,1.6883,1
2.6454,1.6859,1
2.6454,1.6851,1
2.6455,1.6786,1
2.6455,1.6722,1
2.6455,1.6625,1
2.6455,1.6504,1
2.6455,1.6375,1
2.6455,1.6190,1
2.6456,1.6125,1
2.6456,1.6101,1
2.6555,1.6101,1
2.6555,1.6174,1
2.6556,1.6254,1
2.6556,1.6214,1
2.6556,1.6512,1
2.6556,1.6649,1
2.6556,1.6714,1
2.6556,1.6802,1
2.6557,1.6834,1
2.6557,1.6818,1
2.6557,1.6826,1
2.6557,1.6754,1
2.6557,1.6754,1
2.6557,1.6681,1
2.6557,1.6577,1
2.6558,1.6448,1
2.6558,1.6327,1
2.6558,1.6464,1
2.6558,1.6149,1
2.6558,1.6166,1
2.6558,1.6166,1
2.6653,1.6182,1
2.6654,1.6262,1
2.6654,1.6391,1
2.6654,1.6440,1
2.6654,1.6577,1
2.6654,1.6689,1
2.6654,1.6818,1
2.6655,1.6842,1
2.6655,1.6834,1
2.6655,1.6842,1
2.6655,1.6802,1
2.6655,1.6778,1
2.6655,1.6738,1
2.6656,1.6625,1
2.6656,1.6512,1
2.6656,1.6383,1
2.6656,1.6246,1
2.6656,1.6149,1
2.6656,1.6109,1
2.6751,1.6117,1
2.6751,1.6198,1
2.6751,1.6270,1
2.6751,1.6577,1
2.6752,1.6512,1
2.6752,1.6649,1
2.6752,1.6730,1
2.6752,1.6810,1
2.6752,1.6826,1
2.6753,1.6907,1
2.6753,1.6834,1
2.6753,1.6730,1
2.6753,1.6754,1
2.6753,1.6681,1
2.6753,1.6568,1
2.6753,1.6456,1
2.6754,1.6383,1
2.6754,1.6286,1
2.6754,1.6222,1
2.6754,1.6149,1
2.6848,1.6158,1
2.6848,1.6166,1
2.6849,1.6262,1
2.6849,1.6383,1
2.6849,1.6480,1
2.6849,1.6577,1
2.6849,1.6714,1
2.6849,1.6794,1
2.6849,1.6851,1
2.6850,1.6915,1
2.6850,1.6859,1
2.6850,1.6867,1
2.6850,1.6762,1
2.6850,1.6730,1
2.6850,1.6609,1
2.6851,1.6512,1
2.6851,1.6399,1
2.6851,1.6246,1
2.6851,1.6117,1
2.6963,1.6085,1
2.6963,1.6093,1
2.6963,1.6174,1
2.6963,1.6254,1
2.6963,1.6206,1
2.6964,1.6568,1
2.6964,1.6722,1
2.6964,1.6738,1
2.6964,1.6915,1
2.6964,1.6842,1
2.6964,1.6891,1
2.6965,1.6859,1
2.6965,1.6834,1
2.6965,1.6778,1
2.6965,1.6722,1
2.6965,1.6577,1
2.6965,1.6472,1
2.6966,1.6375,1
2.6966,1.6262,1
2.6966,1.6222,1
2.6966,1.6133,1
2.6966,1.6166,1
2.6966,1.6158,1
2.7087,1.6270,1
2.7087,1.6399,1
2.7087,1.6488,1
2.7087,1.6625,1
2.7087,1.6722,1
2.7087,1.6794,1
2.7088,1.6842,1
2.7088,1.6867,1
2.7088,1.6867,1
2.7088,1.6657,1
2.7088,1.6786,1
2.7088,1.6625,1
2.7088,1.6633,1
2.7089,1.6488,1
2.7089,1.6415,1
2.7089,1.6270,1
2.7089,1.6166,1
2.7089,1.6149,1
2.7089,1.6117,1
2.7090,1.6174,1
2.7090,1.6270,1
2.7090,1.6399,1
2.7090,1.6496,1
2.7090,1.6625,1
2.7090,1.6722,1
2.7204,1.6826,1
2.7204,1.6859,1
2.7204,1.6859,1
2.7204,1.6834,1
2.7205,1.6641,1
2.7205,1.6754,1
2.7205,1.6633,1
2.7205,1.6585,1
2.7205,1.6488,1
2.7205,1.6383,1
2.7206,1.6303,1
2.7206,1.6206,1
2.7206,1.6158,1
2.7206,1.6174,1
2.7206,1.6730,1
2.7206,1.6222,1
2.7206,1.6222,1
2.7207,1.6440,1
2.7207,1.6528,1
2.7207,1.6665,1
2.7207,1.6746,1
2.7207,1.6794,1
2.7207,1.6842,1
2.7322,1.6891,1
2.7322,1.6875,1
2.7322,1.6786,1
2.7323,1.6738,1
2.7323,1.6625,1
2.7323,1.6544,1
2.7323,1.6399,1
2.7323,1.6262,1
2.7323,1.6166,1
2.7324,1.6133,1
2.7324,1.6141,1
2.7324,1.5867,1
2.7324,1.6327,1
2.7324,1.6480,1
2.7324,1.6568,1
2.7325,1.6705,1
2.7325,1.6802,1
2.7325,1.6762,1
2.7325,1.6883,1
2.7325,1.6891,1
2.7325,1.6851,1
2.7325,1.6762,1
2.7326,1.6770,1
2.7326,1.6714,1
2.7439,1.6536,1
2.7440,1.6407,1
2.7440,1.6351,1
2.7440,1.6246,1
2.7440,1.6158,1
2.7440,1.6109,1
2.7440,1.6141,1
2.7441,1.6262,1
2.7441,1.6254,1
2.7441,1.6238,1
2.7441,1.6440,1
2.7441,1.6488,1
2.7441,1.6705,1
2.7442,1.6794,1
2.7442,1.6859,1
2.7442,1.6875,1
2.7442,1.6851,1
2.7442,1.6859,1
2.7442,1.6770,1
2.7443,1.6730,1
2.7443,1.6609,1
2.7443,1.6504,1
2.7443,1.6407,1
2.7443,1.6286,1
2.7556,1.6149,1
2.7556,1.6149,1
2.7556,1.6101,1
2.7556,1.6246,1
2.7557,1.6214,1
2.7557,1.6335,1
2.7557,1.6504,1
2.7557,1.6633,1
2.7557,1.6714,1
2.7557,1.6746,1
2.7558,1.6851,1
2.7558,1.7036,1
2.7558,1.6818,1
2.7558,1.6851,1
2.7558,1.6738,1
2.7558,1.6641,1
2.7558,1.6552,1
2.7559,1.6448,1
2.7559,1.6327,1
2.7559,1.6270,1
2.7559,1.6198,1
2.7559,1.6166,1
2.7559,1.6182,1
2.7675,1.6270,1
2.7676,1.6262,1
2.7676,1.6327,1
2.7676,1.6504,1
2.7676,1.6697,1
2.7676,1.6722,1
2.7676,1.6826,1
2.7677,1.6834,1
2.7677,1.6762,1
2.7677,1.6842,1
2.7677,1.6794,1
2.7677,1.6754,1
2.7677,1.6609,1
2.7678,1.6601,1
2.7678,1.6480,1
2.7678,1.6391,1
2.7678,1.6649,1
2.7678,1.6077,1
2.7678,1.6141,1
2.7679,1.6069,1
2.7679,1.6029,1
2.7679,1.6246,1
2.7679,1.6383,1
2.7679,1.6504,1
2.7796,1.6609,1
2.7796,1.6722,1
2.7796,1.6826,1
2.7796,1.6851,1
2.7796,1.6867,1
2.7797,1.6939,1
2.7797,1.6842,1
2.7797,1.6770,1
2.7797,1.6681,1
2.7797,1.6585,1
2.7797,1.6681,1
2.7798,1.6327,1
2.7798,1.6254,1
2.7798,1.6166,1
2.7798,1.6037,1
2.7798,1.6174,1
2.7798,1.6206,1
2.7799,1.6303,1
2.7799,1.6407,1
2.7799,1.6512,1
2.7799,1.6641,1
2.7799,1.6705,1
2.7799,1.6786,1
2.7799,1.6859,1
2.7922,1.6504,1
2.7923,1.6907,1
2.7923,1.6842,1
2.7923,1.6802,1
2.7923,1.6754,1
2.7923,1.6633,1
2.7924,1.6536,1
2.7924,1.6391,1
2.7924,1.6214,1
2.7924,1.6117,1
2.7924,1.6085,1
2.7924,1.6085,1
2.7924,1.6141,1
2.7925,1.6254,1
2.7925,1.6375,1
2.7925,1.6480,1
2.7925,1.6617,1
2.7925,1.6705,1
2.7925,1.6786,1
2.7926,1.6826,1
2.7926,1.6955,1
2.7926,1.6899,1
2.7926,1.6770,1
2.7926,1.6730,1
2.7926,1.6601,1
2.8045,1.6568,1
2.8045,1.6440,1
2.8045,1.6303,1
2.8045,1.6262,1
2.8046,1.6149,1
2.8046,1.6141,1
2.8046,1.6158,1
2.8046,1.6166,1
2.8046,1.6270,1
2.8046,1.6415,1
2.8046,1.6472,1
2.8047,1.6577,1
2.8047,1.6714,1
2.8047,1.6786,1
2.8047,1.6826,1
2.8047,1.6883,1
2.8047,1.6851,1
2.8048,1.6794,1
2.8048,1.6802,1
2.8048,1.6738,1
2.8048,1.6625,1
2.8048,1.6520,1
2.8048,1.6407,1
2.8048,1.6254,1
2.8049,1.6149,1
2.8166,1.6117,1
2.8166,1.6069,1
2.8166,1.6166,1
2.8166,1.6230,1
2.8166,1.6383,1
2.8167,1.6488,1
2.8167,1.6617,1
2.8167,1.6714,1
2.8167,1.6802,1
2.8167,1.6818,1
2.8167,1.6834,1
2.8168,1.6826,1
2.8168,1.6826,1
2.8168,1.6730,1
2.8168,1.6665,1
2.8168,1.6544,1
2.8168,1.6456,1
2.8169,1.6351,1
2.8169,1.6254,1
2.8169,1.6190,1
2.8169,1.6190,1
2.8169,1.6158,1
2.8169,1.6206,1
2.8169,1.6270,1
2.8295,1.6423,1
2.8295,1.6496,1
2.8295,1.6617,1
2.8295,1.6730,1
2.8296,1.6810,1
2.8296,1.6859,1
2.8296,1.6859,1
2.8296,1.6867,1
2.8296,1.6842,1
2.8296,1.6778,1
2.8297,1.6762,1
2.8297,1.6625,1
2.8297,1.6504,1
2.8297,1.6391,1
2.8297,1.6270,1
2.8297,1.6125,1
2.8297,1.6085,1
2.8298,1.6077,1
2.8298,1.6166,1
2.8298,1.6238,1
2.8298,1.6351,1
2.8298,1.6512,1
2.8298,1.6649,1
2.8299,1.6746,1
2.8299,1.6826,1
2.8299,1.6883,1
2.8429,1.6875,1
2.8430,1.6867,1
2.8430,1.6826,1
2.8430,1.6770,1
2.8430,1.6689,1
2.8430,1.6601,1
2.8430,1.6415,1
2.8430,1.6351,1
2.8431,1.6246,1
2.8431,1.6174,1
2.8431,1.6141,1
2.8431,1.6166,1
2.8431,1.6174,1
2.8431,1.6262,1
2.8431,1.6383,1
2.8432,1.6480,1
2.8432,1.6593,1
2.8432,1.6705,1
2.8432,1.6794,1
2.8432,1.6834,1
2.8432,1.6834,1
2.8433,1.6851,1
2.8433,1.6834,1
2.8433,1.6770,1
2.8433,1.6714,1
2.8433,1.6633,1
2.8433,1.6512,1
2.8563,1.6391,1
2.8563,1.6238,1
2.8563,1.6149,1
2.8563,1.6109,1
2.8563,1.6093,1
2.8564,1.6190,1
2.8564,1.6262,1
2.8564,1.6432,1
2.8564,1.6536,1
2.8564,1.6649,1
2.8564,1.6730,1
2.8565,1.6802,1
2.8565,1.6834,1
2.8565,1.6802,1
2.8565,1.6834,1
2.8565,1.6810,1
2.8565,1.6754,1
2.8565,1.6705,1
2.8566,1.6585,1
2.8566,1.6415,1
2.8566,1.6383,1
2.8566,1.6295,1
2.8566,1.6254,1
2.8566,1.6190,1
2.8566,1.6190,1
2.8567,1.6214,1
2.8702,1.6278,1
2.8702,1.6367,1
2.8702,1.6472,1
2.8703,1.6633,1
2.8703,1.6697,1
2.8703,1.6778,1
2.8703,1.6826,1
2.8703,1.6859,1
2.8703,1.6842,1
2.8704,1.6842,1
2.8704,1.6754,1
2.8704,1.6730,1
2.8704,1.6633,1
2.8704,1.6496,1
2.8704,1.6359,1
2.8705,1.6278,1
2.8705,1.6109,1
2.8705,1.6149,1
2.8705,1.6093,1
2.8705,1.6149,1
2.8705,1.6238,1
2.8705,1.6423,1
2.8706,1.6512,1
2.8706,1.6625,1
2.8706,1.6714,1
2.8706,1.6834,1
2.8706,1.6842,1
2.8706,1.6875,1
2.8848,1.6867,1
2.8848,1.6834,1
2.8848,1.6770,1
2.8848,1.6697,1
2.8848,1.6552,1
2.8849,1.6448,1
2.8849,1.6343,1
2.8849,1.6286,1
2.8849,1.6222,1
2.8849,1.6166,1
2.8849,1.6182,1
2.8849,1.6246,1
2.8850,1.6254,1
2.8850,1.6367,1
2.8850,1.6464,1
2.8850,1.6593,1
2.8850,1.6673,1
2.8850,1.6770,1
2.8850,1.6810,1
2.8851,1.6859,1
2.8851,1.6818,1
2.8851,1.6794,1
2.8851,1.6738,1
2.8851,1.6633,1
2.8851,1.6609,1
2.8851,1.6464,1
2.8852,1.6359,1
2.8852,1.6246,1
2.8852,1.6149,1
2.8996,1.6101,1
2.8996,1.6109,1
2.8997,1.6174,1
2.8997,1.6262,1
2.8997,1.6415,1
2.8997,1.6496,1
2.8997,1.6625,1
2.8997,1.6705,1
2.8998,1.6810,1
2.8998,1.6810,1
2.8998,1.6794,1
2.8998,1.6810,1
2.8998,1.6738,1
2.8998,1.6722,1
2.8999,1.6673,1
2.8999,1.6536,1
2.8999,1.6415,1
2.8999,1.6319,1
2.8999,1.6246,1
2.8999,1.6174,1
2.8999,1.6109,1
2.9000,1.6174,1
2.9000,1.6174,1
2.9000,1.6286,1
2.9000,1.6367,1
2.9000,1.6464,1
2.9000,1.6577,1
2.9001,1.6681,1
2.9001,1.6746,1
2.9001,1.6802,1
2.9151,1.6842,1
2.9151,1.6810,1
2.9151,1.6770,1
2.9151,1.6722,1
2.9151,1.6641,1
2.9152,1.6577,1
2.9152,1.6440,1
2.9152,1.6391,1
2.9152,1.6222,1
2.9152,1.6158,1
2.9152,1.6109,1
2.9153,1.6117,1
2.9153,1.6174,1
2.9153,1.6270,1
2.9153,1.6383,1
2.9153,1.6488,1
2.9153,1.6609,1
2.9153,1.6689,1
2.9154,1.6778,1
2.9154,1.6810,1
2.9154,1.6826,1
2.9154,1.6810,1
2.9154,1.6778,1
2.9154,1.6738,1
2.9155,1.6657,1
2.9155,1.6536,1
2.9155,1.6440,1
2.9155,1.6335,1
2.9155,1.6262,1
2.9155,1.6166,1
2.9156,1.6149,1
2.9302,1.6190,1
2.9303,1.6190,1
2.9304,1.6278,1
2.9304,1.6407,1
2.9304,1.6496,1
2.9304,1.6577,1
2.9305,1.6681,1
2.9305,1.6770,1
2.9305,1.6834,1
2.9305,1.6867,1
2.9305,1.6842,1
2.9305,1.6851,1
2.9306,1.6770,1
2.9306,1.6746,1
2.9306,1.6601,1
2.9306,1.6504,1
2.9306,1.6383,1
2.9306,1.6303,1
2.9306,1.6133,1
2.9307,1.6133,1
2.9307,1.6085,1
2.9307,1.6141,1
2.9307,1.6238,1
2.9307,1.6351,1
2.9307,1.6488,1
2.9308,1.6617,1
2.9308,1.6738,1
2.9308,1.6802,1
2.9308,1.6818,1
2.9308,1.6802,1
2.9308,1.6810,1
2.9465,1.6778,1
2.9465,1.6746,1
2.9465,1.6689,1
2.9465,1.6577,1
2.9465,1.6480,1
2.9465,1.6367,1
2.9466,1.6262,1
2.9466,1.6198,1
2.9466,1.6158,1
2.9466,1.6158,1
2.9466,1.6166,1
2.9466,1.6286,1
2.9467,1.6359,1
2.9467,1.6480,1
2.9467,1.6609,1
2.9467,1.6705,1
2.9467,1.6786,1
2.9467,1.6834,1
2.9467,1.6842,1
2.9468,1.6834,1
2.9468,1.6826,1
2.9468,1.6754,1
2.9468,1.6714,1
2.9468,1.6625,1
2.9468,1.6496,1
2.9469,1.6375,1
2.9469,1.6286,1
2.9469,1.6133,1
2.9469,1.6133,1
2.9469,1.6077,1
2.9469,1.6182,1
2.9469,1.6270,1
2.9621,1.6415,1
2.9622,1.6520,1
2.9622,1.6657,1
2.9623,1.6722,1
2.9623,1.6810,1
2.9623,1.6826,1
2.9623,1.6915,1
2.9623,1.6818,1
2.9623,1.6802,1
2.9624,1.6738,1
2.9624,1.6641,1
2.9624,1.6544,1
2.9624,1.6520,1
2.9624,1.6319,1
2.9624,1.6238,1
2.9624,1.6141,1
2.9625,1.6109,1
2.9625,1.6117,1
2.9625,1.6125,1
2.9625,1.6230,1
2.9625,1.6311,1
2.9625,1.6448,1
2.9626,1.6560,1
2.9626,1.6657,1
2.9626,1.6754,1
2.9626,1.6810,1
2.9626,1.6867,1
2.9626,1.6818,1
2.9626,1.6802,1
2.9627,1.6746,1
2.9627,1.6625,1
2.9780,1.6601,1
2.9780,1.6464,1
2.9780,1.6399,1
2.9780,1.6190,1
2.9780,1.6141,1
2.9781,1.6101,1
2.9781,1.6109,1
2.9781,1.6158,1
2.9781,1.6230,1
2.9781,1.6399,1
2.9781,1.6440,1
2.9781,1.6601,1
2.9782,1.6681,1
2.9782,1.6770,1
2.9782,1.6754,1
2.9782,1.6818,1
2.9782,1.6770,1
2.9783,1.6762,1
2.9783,1.6754,1
2.9783,1.6665,1
2.9783,1.6536,1
2.9783,1.6448,1
2.9783,1.6343,1
2.9784,1.6262,1
2.9784,1.6198,1
2.9784,1.6133,1
2.9784,1.6166,1
2.9784,1.6158,1
2.9784,1.6254,1
2.9785,1.6407,1
2.9785,1.6472,1
2.9785,1.6585,1
2.9936,1.6697,1
2.9936,1.7028,1
2.9937,1.6818,1
2.9937,1.6818,1
2.9937,1.6842,1
2.9937,1.6802,1
2.9937,1.6794,1
2.9937,1.6689,1
2.9938,1.6601,1
2.9938,1.6480,1
2.9938,1.6367,1
2.9938,1.6214,1
2.9938,1.6117,1
2.9938,1.6109,1
2.9939,1.6085,1
2.9939,1.6182,1
2.9939,1.6238,1
2.9939,1.6407,1
2.9939,1.6520,1
2.9939,1.6625,1
2.9940,1.6730,1
2.9940,1.6810,1
2.9940,1.6875,1
2.9940,1.6875,1
2.9940,1.6859,1
2.9940,1.6842,1
2.9941,1.6770,1
2.9941,1.6714,1
2.9941,1.6585,1
2.9941,1.6488,1
2.9941,1.6367,1
3.0097,1.6286,1
3.0097,1.6222,1
3.0097,1.6246,1
3.0098,1.6158,1
3.0098,1.6190,1
3.0098,1.6278,1
3.0098,1.6375,1
3.0098,1.6472,1
3.0098,1.6601,1
3.0099,1.6714,1
3.0099,1.6762,1
3.0099,1.6826,1
3.0099,1.6842,1
3.0099,1.6867,1
3.0099,1.6826,1
3.0100,1.6770,1
3.0100,1.6714,1
3.0100,1.6625,1
3.0100,1.6528,1
3.0100,1.6399,1
3.0100,1.6286,1
3.0100,1.6166,1
3.0101,1.6133,1
3.0101,1.6117,1
3.0101,1.6190,1
3.0101,1.6286,1
3.0101,1.6375,1
3.0101,1.6504,1
3.0102,1.6633,1
3.0102,1.6738,1
3.0102,1.6794,1
3.0102,1.6851,1
3.0258,1.6834,1
3.0258,1.6842,1
3.0258,1.6770,1
3.0259,1.6778,1
3.0259,1.6681,1
3.0259,1.6568,1
3.0259,1.6464,1
3.0259,1.6327,1
3.0259,1.6278,1
3.0260,1.6182,1
3.0260,1.6174,1
3.0260,1.6133,1
3.0260,1.6190,1
3.0260,1.6222,1
3.0260,1.6359,1
3.0261,1.6448,1
3.0261,1.6528,1
3.0261,1.6665,1
3.0261,1.6730,1
3.0261,1.6794,1
3.0261,1.6802,1
3.0261,1.6810,1
3.0262,1.6770,1
3.0262,1.6738,1
3.0262,1.6689,1
3.0262,1.6560,1
3.0262,1.6456,1
3.0262,1.6311,1
3.0263,1.6254,1
3.0263,1.6117,1
3.0263,1.6093,1
3.0263,1.6085,1
3.0263,1.6198,1
3.0427,1.6262,1
3.0427,1.6415,1
3.0428,1.6488,1
3.0428,1.6633,1
3.0428,1.6705,1
3.0428,1.6939,1
3.0428,1.6794,1
3.0428,1.6697,1
3.0429,1.6802,1
3.0429,1.6746,1
3.0429,1.6722,1
3.0429,1.6520,1
3.0429,1.6544,1
3.0429,1.6432,1
3.0430,1.6319,1
3.0430,1.5996,1
3.0430,1.6190,1
3.0430,1.6158,1
3.0430,1.6166,1
3.0430,1.6182,1
3.0431,1.6270,1
3.0431,1.6270,1
3.0431,1.6464,1
3.0431,1.6681,1
3.0431,1.6673,1
3.0431,1.7302,1
3.0431,1.6762,1
3.0432,1.6770,1
3.0432,1.6762,1
3.0432,1.6762,1
3.0432,1.6697,1
3.0432,1.6665,1
3.0432,1.6577,1
3.0433,1.6448,1
3.0598,1.6335,1
3.0599,1.6198,1
3.0599,1.6101,1
3.0599,1.6077,1
3.0599,1.6093,1
3.0599,1.6166,1
3.0600,1.6254,1
3.0600,1.6440,1
3.0600,1.6512,1
3.0600,1.6633,1
3.0600,1.6770,1
3.0600,1.6883,1
3.0601,1.6875,1
3.0601,1.6899,1
3.0601,1.6859,1
3.0601,1.6826,1
3.0601,1.6778,1
3.0601,1.6689,1
3.0601,1.6593,1
3.0602,1.6464,1
3.0602,1.6367,1
3.0602,1.6343,1
3.0602,1.6174,1
3.0602,1.6093,1
3.0602,1.6149,1
3.0603,1.6206,1
3.0603,1.6270,1
3.0603,1.6198,1
3.0603,1.6496,1
3.0603,1.6609,1
3.0603,1.6705,1
3.0604,1.7648,1
3.0604,1.6754,1
3.0604,1.7310,1
3.0772,1.6689,1
3.0773,1.6673,1
3.0773,1.6641,1
3.0773,1.6568,1
3.0773,1.6544,1
3.0773,1.6456,1
3.0773,1.6327,1
3.0774,1.6206,1
3.0774,1.6133,1
3.0774,1.6093,1
3.0774,1.6125,1
3.0774,1.6190,1
3.0774,1.6311,1
3.0775,1.6351,1
3.0775,1.6568,1
3.0775,1.6689,1
3.0775,1.6786,1
3.0775,1.6834,1
3.0775,1.6875,1
3.0776,1.6883,1
3.0776,1.6842,1
3.0776,1.6730,1
3.0776,1.6746,1
3.0776,1.6464,1
3.0776,1.6568,1
3.0776,1.6480,1
3.0777,1.6303,1
3.0777,1.6230,1
3.0777,1.6133,1
3.0777,1.6093,1
3.0777,1.6093,1
3.0777,1.6149,1
3.0778,1.6206,1
3.0778,1.6335,1
3.0778,1.6432,1
3.0951,1.6415,1
3.0951,1.6649,1
3.0951,1.7028,1
3.0951,1.6770,1
3.0951,1.6810,1
3.0951,1.6802,1
3.0952,1.6810,1
3.0952,1.6705,1
3.0952,1.7221,1
3.0952,1.6536,1
3.0952,1.6407,1
3.0952,1.6319,1
3.0953,1.6182,1
3.0953,1.6101,1
3.0953,1.6069,1
3.0953,1.6085,1
3.0953,1.6705,1
3.0953,1.6190,1
3.0954,1.6367,1
3.0954,1.6496,1
3.0954,1.6633,1
3.0954,1.6738,1
3.0954,1.6834,1
3.0954,1.6851,1
3.0955,1.6899,1
3.0955,1.6883,1
3.0955,1.6738,1
3.0955,1.6786,1
3.0955,1.6689,1
3.0955,1.6601,1
3.0956,1.6504,1
3.0956,1.6399,1
3.0956,1.6278,1
3.0956,1.6222,1
3.0956,1.6141,1
3.1129,1.6198,1
3.1129,1.6174,1
3.1129,1.6319,1
3.1129,1.6399,1
3.1129,1.6496,1
3.1130,1.6585,1
3.1130,1.6697,1
3.1130,1.6802,1
3.1130,1.6810,1
3.1130,1.6826,1
3.1130,1.6794,1
3.1131,1.6794,1
3.1131,1.6738,1
3.1131,1.6705,1
3.1131,1.6585,1
3.1131,1.6464,1
3.1131,1.6343,1
3.1132,1.6246,1
3.1132,1.6093,1
3.1132,1.6045,1
3.1132,1.6093,1
3.1132,1.6214,1
3.1132,1.6238,1
3.1132,1.6383,1
3.1133,1.6488,1
3.1133,1.6585,1
3.1133,1.6722,1
3.1133,1.6802,1
3.1133,1.6842,1
3.1133,1.6617,1
3.1134,1.6859,1
3.1134,1.6496,1
3.1134,1.6794,1
3.1134,1.6722,1
3.1134,1.6617,1
3.1134,1.6931,1
3.1322,1.6335,1
3.1322,1.6230,1
3.1322,1.6141,1
3.1322,1.6109,1
3.1322,1.6133,1
3.1323,1.6125,1
3.1323,1.6230,1
3.1323,1.6286,1
3.1323,1.6440,1
3.1323,1.6528,1
3.1323,1.6665,1
3.1323,1.6754,1
3.1324,1.6794,1
3.1324,1.6842,1
3.1324,1.6794,1
3.1324,1.6770,1
3.1324,1.6730,1
3.1324,1.6633,1
3.1324,1.6568,1
3.1325,1.6480,1
3.1325,1.6327,1
3.1325,1.6206,1
3.1325,1.6101,1
3.1325,1.6117,1
3.1325,1.6101,1
3.1326,1.5988,1
3.1326,1.6254,1
3.1326,1.6407,1
3.1326,1.6504,1
3.1326,1.6625,1
3.1326,1.6722,1
3.1326,1.6810,1
3.1327,1.6851,1
3.1327,1.6826,1
3.1327,1.6818,1
3.1327,1.6778,1
3.1327,1.6705,1
3.1328,1.6617,1
3.1328,1.6512,1
3.1514,1.6383,1
3.1515,1.6262,1
3.1515,1.6149,1
3.1515,1.6133,1
3.1515,1.6077,1
3.1515,1.6109,1
3.1516,1.6149,1
3.1516,1.6270,1
3.1516,1.6311,1
3.1516,1.6423,1
3.1516,1.6585,1
3.1516,1.6697,1
3.1516,1.6762,1
3.1517,1.6818,1
3.1517,1.6834,1
3.1517,1.6834,1
3.1517,1.6802,1
3.1517,1.6714,1
3.1517,1.6689,1
3.1518,1.6552,1
3.1518,1.6399,1
3.1518,1.6343,1
3.1518,1.6190,1
3.1518,1.6085,1
3.1518,1.6053,1
3.1519,1.6085,1
3.1519,1.6182,1
3.1519,1.6190,1
3.1519,1.6367,1
3.1519,1.6480,1
3.1519,1.6601,1
3.1519,1.6697,1
3.1520,1.6762,1
3.1520,1.6794,1
3.1520,1.6794,1
3.1520,1.6786,1
3.1520,1.6786,1
3.1520,1.6722,1
3.1713,1.6641,1
3.1713,1.6520,1
3.1713,1.6415,1
3.1713,1.6311,1
3.1713,1.6230,1
3.1713,1.6149,1
3.1714,1.6117,1
3.1714,1.6117,1
3.1714,1.6158,1
3.1714,1.6246,1
3.1714,1.6311,1
3.1714,1.6456,1
3.1715,1.6552,1
3.1715,1.6681,1
3.1715,1.6705,1
3.1715,1.6794,1
3.1715,1.6834,1
3.1715,1.6802,1
3.1716,1.6770,1
3.1716,1.6730,1
3.1716,1.6625,1
3.1716,1.6568,1
3.1716,1.6464,1
3.1716,1.6383,1
3.1716,1.6230,1
3.1717,1.6125,1
3.1717,1.6101,1
3.1717,1.6085,1
3.1717,1.6158,1
3.1717,1.6246,1
3.1718,1.6383,1
3.1718,1.6496,1
3.1718,1.6617,1
3.1718,1.6705,1
3.1718,1.6794,1
3.1718,1.6834,1
3.1719,1.6778,1
3.1719,1.6842,1
3.1719,1.6705,1
3.1719,1.6738,1
3.1909,1.6657,1
3.1910,1.6536,1
3.1911,1.6375,1
3.1911,1.6303,1
3.1911,1.6238,1
3.1912,1.6166,1
3.1912,1.6174,1
3.1912,1.6125,1
3.1912,1.6246,1
3.1912,1.6246,1
3.1912,1.6383,1
3.1912,1.6464,1
3.1913,1.6560,1
3.1913,1.6673,1
3.1913,1.6738,1
3.1913,1.6802,1
3.1913,1.6826,1
3.1913,1.6818,1
3.1914,1.6770,1
3.1914,1.6722,1
3.1914,1.6681,1
3.1914,1.6568,1
3.1914,1.6472,1
3.1914,1.6335,1
3.1914,1.6214,1
3.1915,1.6093,1
3.1915,1.6069,1
3.1915,1.6077,1
3.1915,1.6141,1
3.1915,1.6222,1
3.1915,1.6367,1
3.1916,1.6472,1
3.1916,1.6617,1
3.1916,1.6697,1
3.1916,1.6794,1
3.1916,1.6826,1
3.1916,1.6842,1
3.1916,1.6818,1
3.1917,1.6770,1
3.2107,1.6722,1
3.2107,1.6649,1
3.2107,1.6528,1
3.2107,1.6407,1
3.2108,1.6303,1
3.2108,1.6238,1
3.2108,1.6133,1
3.2108,1.6117,1
3.2108,1.6125,1
3.2108,1.6149,1
3.2108,1.6246,1
3.2109,1.6391,1
3.2109,1.6472,1
3.2109,1.6585,1
3.2109,1.6689,1
3.2109,1.6770,1
3.2109,1.6818,1
3.2109,1.6810,1
3.2110,1.6826,1
3.2110,1.6834,1
3.2110,1.6754,1
3.2110,1.6681,1
3.2110,1.6601,1
3.2110,1.6423,1
3.2111,1.6311,1
3.2111,1.6206,1
3.2111,1.6133,1
3.2111,1.6109,1
3.2111,1.6109,1
3.2111,1.6182,1
3.2111,1.6286,1
3.2112,1.6399,1
3.2112,1.6504,1
3.2112,1.6649,1
3.2112,1.6722,1
3.2112,1.6794,1
3.2112,1.6834,1
3.2113,1.6834,1
3.2113,1.6842,1
3.2113,1.6802,1
3.2305,1.6714,1
3.2306,1.6689,1
3.2306,1.6528,1
3.2306,1.6456,1
3.2306,1.6327,1
3.2307,1.6262,1
3.2307,1.6182,1
3.2307,1.6158,1
3.2307,1.6166,1
3.2307,1.6166,1
3.2307,1.6278,1
3.2308,1.6327,1
3.2308,1.6496,1
3.2308,1.6593,1
3.2308,1.6697,1
3.2308,1.6778,1
3.2308,1.6826,1
3.2309,1.6851,1
3.2309,1.6842,1
3.2309,1.6770,1
3.2309,1.6754,1
3.2309,1.6697,1
3.2309,1.6568,1
3.2310,1.6472,1
3.2310,1.6359,1
3.2310,1.6230,1
3.2310,1.6109,1
3.2310,1.6109,1
3.2310,1.6109,1
3.2310,1.6166,1
3.2311,1.6230,1
3.2311,1.6375,1
3.2311,1.6480,1
3.2311,1.6568,1
3.2311,1.6714,1
3.2311,1.6762,1
3.2312,1.6810,1
3.2312,1.6794,1
3.2312,1.6802,1
3.2505,1.6786,1
3.2506,1.6730,1
3.2506,1.6657,1
3.2506,1.6528,1
3.2506,1.6440,1
3.2506,1.6295,1
3.2506,1.6254,1
3.2506,1.6158,1
3.2507,1.6085,1
3.2507,1.6125,1
3.2507,1.6149,1
3.2507,1.6246,1
3.2507,1.6327,1
3.2508,1.6472,1
3.2508,1.6544,1
3.2508,1.6673,1
3.2508,1.6754,1
3.2508,1.6818,1
3.2508,1.6851,1
3.2508,1.6826,1
3.2509,1.6794,1
3.2509,1.6738,1
3.2509,1.6681,1
3.2509,1.6593,1
3.2509,1.6472,1
3.2509,1.6367,1
3.2510,1.6246,1
3.2510,1.6085,1
3.2510,1.6101,1
3.2510,1.6077,1
3.2510,1.6149,1
3.2510,1.6222,1
3.2511,1.6367,1
3.2511,1.6480,1
3.2511,1.6601,1
3.2511,1.6714,1
3.2511,1.6826,1
3.2511,1.6842,1
3.2512,1.6834,1
3.2512,1.6818,1
3.2705,1.6802,1
3.2706,1.6746,1
3.2706,1.6673,1
3.2706,1.6577,1
3.2706,1.6480,1
3.2706,1.6319,1
3.2706,1.6149,1
3.2706,1.6149,1
3.2707,1.6101,1
3.2707,1.6141,1
3.2707,1.6214,1
3.2707,1.6238,1
3.2707,1.6335,1
3.2707,1.6432,1
3.2708,1.6577,1
3.2708,1.6673,1
3.2708,1.6705,1
3.2708,1.6762,1
3.2708,1.6818,1
3.2708,1.6802,1
3.2709,1.6778,1
3.2709,1.6730,1
3.2709,1.6633,1
3.2709,1.6593,1
3.2709,1.6464,1
3.2709,1.6343,1
3.2710,1.6206,1
3.2710,1.6069,1
3.2710,1.6061,1
3.2710,1.6053,1
3.2710,1.6133,1
3.2710,1.6198,1
3.2711,1.6367,1
3.2711,1.6464,1
3.2711,1.6560,1
3.2711,1.6673,1
3.2711,1.6786,1
3.2711,1.6794,1
3.2712,1.6818,1
3.2712,1.6786,1
3.2909,1.6770,1
3.2909,1.6714,1
3.2909,1.6633,1
3.2910,1.6528,1
3.2910,1.6423,1
3.2910,1.6303,1
3.2910,1.6246,1
3.2910,1.6222,1
3.2910,1.6149,1
3.2910,1.6182,1
3.2911,1.6206,1
3.2911,1.6335,1
3.2911,1.6456,1
3.2911,1.6520,1
3.2911,1.6649,1
3.2911,1.6746,1
3.2912,1.6802,1
3.2912,1.6891,1
3.2912,1.6907,1
3.2912,1.6883,1
3.2912,1.6859,1
3.2912,1.6826,1
3.2913,1.6705,1
3.2913,1.6617,1
3.2913,1.6496,1
3.2913,1.6391,1
3.2913,1.6270,1
3.2913,1.6198,1
3.2913,1.6125,1
3.2914,1.6133,1
3.2914,1.6174,1
3.2914,1.6230,1
3.2914,1.6351,1
3.2914,1.6488,1
3.2914,1.6609,1
3.2915,1.6697,1
3.2915,1.6714,1
3.2915,1.6786,1
3.2915,1.6778,1
3.2915,1.6786,1
3.2915,1.6754,1
3.3115,1.6689,1
3.3116,1.6641,1
3.3116,1.6512,1
3.3116,1.6407,1
3.3116,1.6295,1
3.3116,1.6190,1
3.3116,1.6158,1
3.3117,1.6101,1
3.3117,1.6109,1
3.3117,1.6133,1
3.3117,1.6230,1
3.3117,1.6351,1
3.3117,1.6415,1
3.3118,1.6504,1
3.3118,1.6625,1
3.3118,1.6705,1
3.3119,1.6738,1
3.3119,1.6754,1
3.3119,1.6762,1
3.3119,1.6697,1
3.3119,1.6665,1
3.3119,1.6577,1
3.3120,1.6520,1
3.3120,1.6423,1
3.3120,1.6286,1
3.3120,1.6158,1
3.3120,1.6037,1
3.3120,1.6029,1
3.3120,1.5996,1
3.3121,1.6037,1
3.3121,1.6141,1
3.3121,1.6238,1
3.3121,1.6407,1
3.3121,1.6496,1
3.3121,1.6609,1
3.3122,1.6633,1
3.3122,1.6746,1
3.3122,1.6714,1
3.3122,1.6705,1
3.3122,1.6697,1
3.3122,1.6649,1
3.3123,1.6552,1
3.3323,1.6488,1
3.3323,1.6391,1
3.3323,1.6270,1
3.3323,1.6174,1
3.3324,1.6133,1
3.3324,1.6133,1
3.3324,1.6133,1
3.3324,1.6166,1
3.3324,1.6230,1
3.3324,1.6319,1
3.3325,1.6415,1
3.3325,1.6480,1
3.3325,1.6609,1
3.3325,1.6681,1
3.3325,1.6746,1
3.3325,1.6770,1
3.3326,1.6746,1
3.3326,1.6762,1
3.3326,1.6673,1
3.3326,1.6625,1
3.3326,1.6536,1
3.3326,1.6415,1
3.3327,1.6286,1
3.3327,1.6182,1
3.3327,1.6085,1
3.3327,1.6077,1
3.3327,1.6037,1
3.3327,1.6109,1
3.3327,1.6206,1
3.3328,1.6359,1
3.3328,1.6456,1
3.3328,1.6568,1
3.3328,1.6665,1
3.3328,1.6705,1
3.3328,1.6762,1
3.3328,1.6746,1
3.3329,1.6762,1
3.3329,1.6754,1
3.3329,1.6673,1
3.3329,1.6609,1
3.3329,1.6472,1
3.3529,1.6391,1
3.3529,1.6311,1
3.3530,1.6182,1
3.3530,1.6149,1
3.3530,1.6125,1
3.3530,1.6133,1
3.3530,1.6166,1
3.3530,1.6222,1
3.3531,1.6327,1
3.3531,1.6399,1
3.3531,1.6536,1
3.3531,1.6617,1
3.3531,1.6697,1
3.3531,1.6762,1
3.3531,1.6762,1
3.3532,1.6802,1
3.3532,1.6762,1
3.3532,1.6681,1
3.3532,1.6617,1
3.3532,1.6568,1
3.3532,1.6440,1
3.3533,1.6343,1
3.3533,1.6198,1
3.3533,1.6117,1
3.3533,1.6077,1
3.3533,1.6101,1
3.3533,1.6125,1
3.3534,1.6214,1
3.3534,1.6367,1
3.3534,1.6488,1
3.3534,1.6641,1
3.3534,1.6665,1
3.3534,1.6762,1
3.3535,1.6794,1
3.3535,1.6786,1
3.3535,1.6778,1
3.3535,1.6754,1
3.3535,1.6705,1
3.3535,1.6649,1
3.3536,1.6528,1
3.3536,1.6472,1
3.3743,1.6343,1
3.3743,1.6262,1
3.3744,1.6166,1
3.3744,1.6133,1
3.3744,1.6149,1
3.3744,1.6166,1
3.3744,1.6230,1
3.3744,1.6351,1
3.3745,1.6440,1
3.3745,1.6448,1
3.3745,1.6689,1
3.3745,1.6754,1
3.3745,1.6786,1
3.3745,1.6826,1
3.3746,1.6770,1
3.3746,1.6786,1
3.3746,1.6786,1
3.3746,1.6714,1
3.3746,1.6609,1
3.3746,1.6335,1
3.3746,1.6375,1
3.3747,1.6270,1
3.3747,1.6158,1
3.3747,1.6125,1
3.3747,1.6109,1
3.3747,1.6182,1
3.3747,1.6270,1
3.3748,1.6335,1
3.3748,1.6456,1
3.3748,1.6585,1
3.3748,1.6673,1
3.3748,1.6754,1
3.3748,1.6794,1
3.3749,1.6770,1
3.3749,1.6770,1
3.3749,1.6754,1
3.3749,1.6705,1
3.3749,1.6625,1
3.3749,1.6520,1
3.3750,1.6440,1
3.3750,1.6319,1
3.3750,1.6254,1
3.3750,1.6174,1
3.3957,1.6141,1
3.3957,1.6158,1
3.3957,1.6166,1
3.3957,1.6246,1
3.3957,1.6335,1
3.3958,1.6440,1
3.3958,1.6552,1
3.3958,1.6625,1
3.3958,1.6730,1
3.3958,1.6762,1
3.3958,1.6770,1
3.3958,1.6786,1
3.3959,1.6754,1
3.3959,1.6681,1
3.3959,1.6657,1
3.3959,1.6528,1
3.3959,1.6448,1
3.3959,1.6351,1
3.3960,1.6230,1
3.3960,1.6133,1
3.3960,1.6141,1
3.3960,1.6117,1
3.3960,1.6101,1
3.3960,1.6254,1
3.3961,1.6375,1
3.3961,1.6488,1
3.3961,1.6649,1
3.3961,1.6714,1
3.3961,1.6762,1
3.3961,1.6786,1
3.3962,1.6794,1
3.3962,1.6770,1
3.3962,1.6762,1
3.3962,1.6705,1
3.3962,1.6609,1
3.3962,1.6496,1
3.3962,1.6415,1
3.3963,1.6319,1
3.3963,1.6278,1
3.3963,1.6230,1
3.3963,1.6053,1
3.3963,1.6166,1
3.3963,1.6190,1
3.4173,1.6262,1
3.4174,1.6383,1
3.4175,1.6472,1
3.4175,1.6568,1
3.4175,1.6689,1
3.4175,1.6834,1
3.4176,1.6770,1
3.4176,1.6730,1
3.4176,1.6802,1
3.4176,1.6496,1
3.4176,1.6738,1
3.4176,1.6673,1
3.4176,1.6601,1
3.4177,1.6496,1
3.4177,1.6375,1
3.4177,1.6238,1
3.4177,1.6117,1
3.4177,1.6270,1
3.4178,1.6101,1
3.4178,1.6190,1
3.4178,1.6246,1
3.4178,1.6375,1
3.4178,1.6496,1
3.4178,1.6617,1
3.4179,1.6697,1
3.4179,1.6762,1
3.4179,1.6802,1
3.4179,1.6794,1
3.4179,1.6802,1
3.4179,1.6770,1
3.4180,1.6714,1
3.4180,1.6641,1
3.4180,1.6560,1
3.4180,1.6415,1
3.4180,1.6295,1
3.4180,1.6303,1
3.4181,1.6109,1
3.4181,1.6077,1
3.4181,1.6085,1
3.4181,1.6125,1
3.4181,1.6214,1
3.4181,1.6295,1
3.4182,1.6423,1
3.4391,1.6423,1
3.4392,1.6641,1
3.4392,1.6738,1
3.4392,1.6778,1
3.4392,1.6786,1
3.4392,1.6770,1
3.4392,1.6738,1
3.4393,1.6681,1
3.4393,1.6568,1
3.4393,1.6528,1
3.4393,1.6440,1
3.4393,1.6303,1
3.4393,1.6101,1
3.4393,1.6093,1
3.4394,1.6069,1
3.4394,1.6061,1
3.4394,1.6045,1
3.4394,1.6262,1
3.4394,1.6391,1
3.4394,1.6504,1
3.4394,1.6625,1
3.4395,1.6722,1
3.4395,1.6794,1
3.4395,1.6826,1
3.4395,1.6802,1
3.4395,1.6802,1
3.4395,1.6746,1
3.4395,1.6730,1
3.4396,1.6641,1
3.4396,1.6536,1
3.4396,1.6472,1
3.4396,1.6303,1
3.4396,1.6238,1
3.4396,1.6158,1
3.4396,1.5771,1
3.4397,1.6182,1
3.4397,1.5875,1
3.4397,1.6311,1
3.4397,1.6415,1
3.4397,1.6496,1
3.4397,1.6585,1
3.4398,1.6665,1
3.4398,1.6762,1
3.4398,1.6802,1
3.4611,1.6665,1
3.4612,1.6794,1
3.4612,1.6770,1
3.4612,1.6714,1
3.4612,1.6697,1
3.4612,1.6560,1
3.4613,1.6456,1
3.4613,1.6335,1
3.4613,1.6206,1
3.4613,1.6085,1
3.4613,1.6037,1
3.4613,1.6053,1
3.4613,1.6125,1
3.4614,1.6214,1
3.4614,1.6375,1
3.4614,1.6504,1
3.4614,1.6601,1
3.4614,1.6689,1
3.4614,1.6786,1
3.4615,1.6786,1
3.4615,1.6786,1
3.4615,1.6786,1
3.4615,1.6988,1
3.4615,1.6714,1
3.4615,1.6625,1
3.4616,1.6504,1
3.4616,1.6375,1
3.4616,1.6278,1
3.4616,1.6262,1
3.4616,1.6133,1
3.4616,1.6021,1
3.4617,1.6117,1
3.4617,1.6158,1
3.4617,1.6286,1
3.4617,1.6319,1
3.4617,1.6488,1
3.4617,1.6601,1
3.4618,1.6697,1
3.4618,1.6794,1
3.4618,1.6834,1
3.4618,1.6826,1
3.4618,1.6867,1
3.4618,1.6834,1
3.4618,1.6738,1
3.4830,1.6665,1
3.4831,1.6552,1
3.4831,1.6448,1
3.4831,1.6335,1
3.4831,1.6206,1
3.4831,1.6085,1
3.4831,1.6093,1
3.4832,1.6061,1
3.4832,1.6238,1
3.4832,1.6230,1
3.4832,1.6383,1
3.4832,1.6480,1
3.4832,1.6601,1
3.4833,1.6705,1
3.4833,1.6705,1
3.4833,1.6842,1
3.4833,1.6794,1
3.4833,1.6818,1
3.4833,1.6762,1
3.4833,1.6754,1
3.4834,1.6657,1
3.4834,1.6536,1
3.4834,1.6448,1
3.4834,1.6295,1
3.4834,1.6198,1
3.4834,1.6149,1
3.4834,1.5795,1
3.4835,1.6174,1
3.4835,1.6149,1
3.4835,1.6303,1
3.4835,1.6327,1
3.4835,1.6496,1
3.4835,1.6625,1
3.4835,1.6689,1
3.4836,1.6762,1
3.4836,1.6810,1
3.4836,1.6899,1
3.4836,1.6786,1
3.4836,1.6681,1
3.4836,1.6722,1
3.4837,1.6673,1
3.4837,1.6593,1
3.4837,1.6351,1
3.5048,1.6335,1
3.5049,1.6198,1
3.5049,1.6109,1
3.5049,1.6125,1
3.5049,1.6085,1
3.5049,1.6158,1
3.5050,1.6230,1
3.5050,1.6440,1
3.5050,1.6480,1
3.5050,1.6738,1
3.5050,1.6689,1
3.5050,1.6786,1
3.5051,1.6826,1
3.5051,1.6867,1
3.5051,1.6810,1
3.5051,1.6714,1
3.5051,1.6754,1
3.5051,1.6673,1
3.5051,1.6544,1
3.5052,1.6440,1
3.5052,1.6327,1
3.5052,1.6295,1
3.5052,1.6190,1
3.5052,1.6158,1
3.5052,1.6125,1
3.5052,1.6206,1
3.5053,1.6295,1
3.5053,1.6407,1
3.5053,1.6480,1
3.5053,1.6585,1
3.5053,1.6714,1
3.5053,1.6875,1
3.5053,1.6834,1
3.5054,1.6883,1
3.5054,1.6818,1
3.5054,1.6794,1
3.5054,1.6722,1
3.5054,1.6673,1
3.5054,1.6568,1
3.5055,1.6407,1
3.5055,1.6335,1
3.5055,1.6158,1
3.5055,1.6117,1
3.5055,1.6093,1
3.5270,1.6093,1
3.5271,1.6117,1
3.5271,1.6262,1
3.5271,1.6359,1
3.5271,1.6480,1
3.5272,1.6617,1
3.5272,1.6697,1
3.5272,1.6818,1
3.5272,1.6802,1
3.5272,1.6786,1
3.5272,1.6818,1
3.5273,1.6762,1
3.5273,1.6714,1
3.5273,1.6657,1
3.5273,1.6536,1
3.5273,1.6415,1
3.5273,1.6286,1
3.5274,1.6190,1
3.5274,1.6174,1
3.5274,1.6198,1
3.5274,1.6198,1
3.5274,1.6262,1
3.5274,1.6246,1
3.5274,1.6351,1
3.5275,1.6480,1
3.5275,1.6577,1
3.5275,1.6665,1
3.5275,1.6754,1
3.5275,1.6818,1
3.5275,1.6826,1
3.5276,1.6810,1
3.5276,1.6794,1
3.5276,1.6714,1
3.5276,1.6714,1
3.5276,1.6617,1
3.5276,1.6464,1
3.5277,1.6359,1
3.5277,1.6230,1
3.5277,1.6101,1
3.5277,1.6117,1
3.5277,1.6109,1
3.5277,1.6182,1
3.5277,1.6254,1
3.5278,1.6415,1
3.5278,1.6496,1
3.5492,1.6625,1
3.5492,1.6722,1
3.5492,1.6794,1
3.5493,1.6810,1
3.5493,1.6802,1
3.5493,1.6802,1
3.5493,1.6754,1
3.5493,1.6722,1
3.5493,1.6633,1
3.5494,1.6544,1
3.5494,1.6432,1
3.5494,1.6311,1
3.5494,1.6295,1
3.5494,1.6166,1
3.5494,1.6141,1
3.5495,1.6125,1
3.5495,1.6141,1
3.5495,1.6230,1
3.5495,1.6303,1
3.5495,1.6423,1
3.5495,1.6528,1
3.5496,1.6641,1
3.5496,1.6730,1
3.5496,1.6834,1
3.5496,1.6810,1
3.5496,1.6826,1
3.5497,1.6794,1
3.5497,1.6730,1
3.5497,1.6705,1
3.5497,1.6625,1
3.5497,1.6448,1
3.5497,1.6359,1
3.5497,1.6246,1
3.5498,1.6109,1
3.5498,1.5884,1
3.5498,1.6117,1
3.5498,1.6214,1
3.5498,1.6254,1
3.5498,1.6391,1
3.5498,1.6504,1
3.5499,1.6625,1
3.5499,1.6730,1
3.5499,1.6802,1
3.5499,1.6842,1
3.5718,1.6834,1
3.5719,1.6834,1
3.5719,1.6794,1
3.5719,1.6722,1
3.5719,1.6649,1
3.5719,1.6552,1
3.5720,1.6423,1
3.5720,1.6295,1
3.5720,1.6198,1
3.5720,1.6166,1
3.5720,1.6109,1
3.5720,1.6141,1
3.5721,1.6166,1
3.5721,1.6270,1
3.5721,1.6399,1
3.5721,1.6448,1
3.5721,1.6601,1
3.5721,1.6697,1
3.5721,1.6802,1
3.5722,1.6802,1
3.5722,1.6834,1
3.5722,1.6826,1
3.5722,1.6746,1
3.5722,1.6714,1
3.5722,1.6617,1
3.5722,1.6552,1
3.5723,1.6456,1
3.5723,1.6311,1
3.5723,1.6182,1
3.5723,1.6101,1
3.5723,1.6109,1
3.5723,1.6077,1
3.5724,1.6141,1
3.5724,1.6222,1
3.5724,1.6375,1
3.5724,1.6472,1
3.5724,1.6609,1
3.5724,1.6689,1
3.5724,1.6762,1
3.5725,1.6810,1
3.5725,1.6770,1
3.5725,1.6778,1
3.5725,1.6746,1
3.5725,1.6714,1
3.5725,1.6673,1
3.5942,1.6544,1
3.5942,1.6415,1
3.5943,1.6286,1
3.5943,1.6182,1
3.5943,1.6133,1
3.5943,1.6101,1
3.5943,1.6141,1
3.5943,1.6158,1
3.5944,1.6270,1
3.5944,1.6383,1
3.5944,1.6464,1
3.5944,1.6585,1
3.5944,1.6673,1
3.5944,1.6770,1
3.5945,1.6794,1
3.5945,1.6826,1
3.5945,1.6818,1
3.5945,1.6762,1
3.5945,1.6730,1
3.5945,1.6625,1
3.5945,1.6568,1
3.5946,1.6456,1
3.5946,1.6343,1
3.5946,1.6206,1
3.5946,1.6101,1
3.5946,1.6093,1
3.5946,1.6093,1
3.5946,1.6166,1
3.5947,1.6230,1
3.5947,1.6351,1
3.5947,1.6504,1
3.5947,1.6617,1
3.5947,1.6689,1
3.5947,1.6955,1
3.5948,1.6802,1
3.5948,1.6778,1
3.5948,1.6778,1
3.5948,1.6786,1
3.5948,1.6722,1
3.5948,1.6681,1
3.5948,1.6520,1
3.5949,1.6415,1
3.5949,1.6319,1
3.5949,1.6254,1
3.5949,1.6166,1
3.6189,1.6093,1
3.6190,1.6141,1
3.6190,1.6149,1
3.6190,1.6270,1
3.6190,1.6319,1
3.6191,1.6480,1
3.6191,1.6593,1
3.6191,1.6705,1
3.6191,1.6754,1
3.6191,1.6818,1
3.6191,1.6826,1
3.6192,1.6786,1
3.6192,1.6754,1
3.6192,1.6714,1
3.6192,1.6625,1
3.6192,1.6568,1
3.6192,1.6480,1
3.6193,1.6319,1
3.6193,1.6190,1
3.6193,1.6093,1
3.6193,1.6053,1
3.6193,1.6061,1
3.6193,1.6133,1
3.6194,1.6206,1
3.6194,1.6367,1
3.6194,1.6448,1
3.6194,1.6577,1
3.6194,1.6673,1
3.6194,1.6738,1
3.6195,1.6786,1
3.6195,1.6770,1
3.6195,1.6730,1
3.6195,1.6714,1
3.6195,1.6657,1
3.6195,1.6601,1
3.6196,1.6488,1
3.6196,1.6423,1
3.6196,1.6286,1
3.6196,1.6190,1
3.6196,1.6133,1
3.6196,1.6109,1
3.6197,1.6117,1
3.6197,1.6158,1
3.6197,1.6230,1
3.6197,1.6278,1
3.6197,1.6399,1
3.6197,1.6544,1
3.6198,1.6609,1
3.6198,1.6689,1
3.6198,1.6754,1
3.6449,1.6786,1
3.6450,1.6810,1
3.6450,1.6722,1
3.6450,1.6705,1
3.6450,1.6617,1
3.6450,1.6560,1
3.6451,1.6432,1
3.6451,1.6303,1
3.6451,1.6182,1
3.6451,1.6053,1
3.6451,1.6061,1
3.6451,1.6053,1
3.6452,1.6077,1
3.6452,1.6238,1
3.6452,1.6359,1
3.6452,1.6456,1
3.6452,1.6568,1
3.6453,1.6641,1
3.6453,1.6722,1
3.6453,1.6754,1
3.6453,1.6778,1
3.6453,1.6762,1
3.6453,1.6754,1
3.6454,1.6705,1
3.6454,1.6609,1
3.6454,1.6480,1
3.6454,1.6359,1
3.6454,1.6295,1
3.6454,1.6158,1
3.6454,1.6125,1
3.6455,1.6085,1
3.6455,1.6085,1
3.6455,1.6141,1
3.6455,1.6238,1
3.6455,1.6311,1
3.6455,1.6456,1
3.6456,1.6560,1
3.6456,1.6665,1
3.6456,1.6714,1
3.6456,1.6794,1
3.6456,1.6802,1
3.6456,1.6786,1
3.6457,1.6738,1
3.6457,1.6689,1
3.6457,1.6617,1
3.6457,1.6544,1
3.6457,1.6432,1
3.6457,1.6343,1
3.6458,1.6222,1
3.6458,1.6109,1
3.6458,1.6069,1
3.6458,1.6045,1
3.6712,1.6149,1
3.6713,1.6214,1
3.6713,1.6375,1
3.6713,1.6488,1
3.6713,1.6617,1
3.6714,1.6705,1
3.6714,1.6802,1
3.6714,1.6818,1
3.6714,1.6802,1
3.6714,1.6794,1
3.6714,1.6762,1
3.6715,1.6705,1
3.6715,1.6625,1
3.6715,1.6488,1
3.6715,1.6399,1
3.6715,1.6295,1
3.6715,1.6190,1
3.6716,1.6166,1
3.6716,1.6101,1
3.6716,1.6141,1
3.6716,1.6174,1
3.6716,1.6246,1
3.6716,1.6327,1
3.6717,1.6472,1
3.6717,1.6577,1
3.6717,1.6673,1
3.6717,1.6770,1
3.6717,1.6810,1
3.6717,1.6826,1
3.6718,1.6794,1
3.6718,1.6762,1
3.6718,1.6689,1
3.6718,1.6673,1
3.6718,1.6544,1
3.6718,1.6464,1
3.6719,1.6335,1
3.6719,1.6190,1
3.6719,1.6109,1
3.6719,1.6093,1
3.6719,1.6077,1
3.6719,1.6158,1
3.6720,1.6254,1
3.6720,1.6391,1
3.6720,1.6504,1
3.6720,1.6657,1
3.6720,1.6786,1
3.6720,1.6786,1
3.6721,1.6818,1
3.6721,1.6834,1
3.6721,1.6818,1
3.6721,1.6794,1
3.6721,1.6738,1
3.6967,1.6665,1
3.6967,1.6552,1
3.6967,1.6456,1
3.6968,1.6286,1
3.6968,1.6182,1
3.6968,1.6149,1
3.6968,1.6085,1
3.6968,1.6133,1
3.6968,1.6141,1
3.6969,1.6270,1
3.6969,1.6295,1
3.6969,1.6464,1
3.6969,1.6585,1
3.6969,1.6697,1
3.6969,1.6746,1
3.6970,1.6802,1
3.6970,1.6883,1
3.6970,1.6826,1
3.6970,1.6786,1
3.6970,1.6738,1
3.6970,1.6681,1
3.6971,1.6568,1
3.6971,1.6464,1
3.6971,1.6295,1
3.6971,1.6190,1
3.6971,1.6085,1
3.6971,1.6053,1
3.6972,1.6061,1
3.6972,1.6174,1
3.6972,1.6254,1
3.6972,1.6383,1
3.6972,1.6504,1
3.6972,1.6657,1
3.6973,1.6770,1
3.6973,1.6794,1
3.6973,1.6818,1
3.6973,1.6842,1
3.6973,1.6810,1
3.6973,1.6810,1
3.6974,1.6730,1
3.6974,1.6665,1
3.6974,1.6568,1
3.6974,1.6448,1
3.6974,1.6303,1
3.6974,1.6246,1
3.6975,1.6141,1
3.6975,1.6085,1
3.6975,1.6109,1
3.6975,1.6182,1
3.6975,1.6222,1
3.6975,1.6327,1
3.7224,1.6448,1
3.7225,1.6585,1
3.7225,1.6657,1
3.7225,1.6754,1
3.7225,1.6810,1
3.7225,1.6810,1
3.7225,1.6826,1
3.7226,1.6770,1
3.7226,1.6762,1
3.7226,1.6327,1
3.7226,1.6625,1
3.7226,1.6512,1
3.7226,1.6383,1
3.7227,1.6222,1
3.7227,1.6117,1
3.7227,1.6085,1
3.7227,1.6093,1
3.7227,1.6158,1
3.7227,1.6270,1
3.7227,1.6375,1
3.7228,1.6480,1
3.7228,1.6649,1
3.7228,1.6746,1
3.7228,1.6778,1
3.7228,1.6802,1
3.7228,1.6786,1
3.7228,1.6794,1
3.7229,1.6786,1
3.7229,1.6714,1
3.7229,1.6681,1
3.7229,1.6528,1
3.7229,1.6415,1
3.7229,1.6286,1
3.7229,1.6198,1
3.7230,1.6166,1
3.7230,1.6101,1
3.7230,1.6125,1
3.7230,1.6061,1
3.7230,1.6238,1
3.7230,1.6198,1
3.7231,1.6472,1
3.7231,1.6577,1
3.7231,1.6705,1
3.7231,1.6802,1
3.7231,1.6810,1
3.7231,1.6818,1
3.7232,1.6842,1
3.7232,1.6810,1
3.7232,1.6730,1
3.7232,1.6633,1
3.7232,1.6568,1
3.7484,1.6423,1
3.7485,1.6311,1
3.7485,1.6182,1
3.7485,1.6093,1
3.7485,1.6085,1
3.7486,1.6117,1
3.7486,1.6182,1
3.7486,1.6254,1
3.7486,1.6383,1
3.7486,1.6536,1
3.7486,1.6633,1
3.7487,1.6746,1
3.7487,1.6810,1
3.7487,1.6842,1
3.7487,1.6907,1
3.7487,1.6867,1
3.7487,1.6609,1
3.7488,1.6778,1
3.7488,1.6625,1
3.7488,1.6552,1
3.7488,1.6456,1
3.7488,1.6335,1
3.7488,1.6270,1
3.7489,1.6174,1
3.7489,1.6125,1
3.7489,1.6125,1
3.7489,1.6198,1
3.7489,1.6303,1
3.7489,1.6375,1
3.7489,1.6512,1
3.7490,1.6641,1
3.7490,1.6762,1
3.7490,1.6794,1
3.7490,1.6834,1
3.7490,1.6851,1
3.7490,1.6834,1
3.7491,1.6802,1
3.7491,1.6738,1
3.7491,1.6641,1
3.7491,1.6560,1
3.7491,1.6472,1
3.7491,1.6303,1
3.7491,1.6198,1
3.7492,1.6093,1
3.7492,1.6069,1
3.7492,1.6069,1
3.7492,1.6141,1
3.7492,1.6246,1
3.7492,1.6375,1
3.7492,1.6480,1
3.7493,1.6641,1
3.7493,1.6746,1
3.7493,1.6762,1
3.7744,1.6834,1
3.7745,1.6818,1
3.7745,1.6867,1
3.7745,1.6754,1
3.7745,1.6697,1
3.7745,1.6665,1
3.7746,1.6504,1
3.7746,1.6399,1
3.7746,1.6270,1
3.7746,1.6061,1
3.7746,1.6174,1
3.7746,1.6012,1
3.7746,1.6158,1
3.7747,1.6182,1
3.7747,1.6262,1
3.7747,1.6351,1
3.7747,1.6472,1
3.7747,1.6665,1
3.7747,1.6714,1
3.7747,1.6786,1
3.7748,1.6818,1
3.7748,1.6851,1
3.7748,1.6867,1
3.7748,1.6794,1
3.7748,1.6746,1
3.7748,1.6649,1
3.7748,1.6568,1
3.7749,1.6488,1
3.7749,1.6351,1
3.7749,1.6238,1
3.7749,1.6093,1
3.7749,1.6077,1
3.7750,1.6053,1
3.7750,1.6391,1
3.7750,1.6230,1
3.7750,1.6359,1
3.7750,1.6440,1
3.7750,1.6496,1
3.7750,1.6722,1
3.7751,1.6770,1
3.7751,1.6802,1
3.7751,1.6826,1
3.7751,1.6810,1
3.7751,1.6633,1
3.7751,1.6746,1
3.7752,1.6705,1
3.7752,1.6560,1
3.7752,1.6448,1
3.7752,1.6303,1
3.7752,1.6222,1
3.7752,1.6149,1
3.8012,1.6101,1
3.8012,1.6125,1
3.8013,1.6182,1
3.8013,1.6238,1
3.8013,1.6472,1
3.8013,1.6456,1
3.8013,1.6609,1
3.8013,1.6665,1
3.8014,1.6730,1
3.8014,1.6794,1
3.8014,1.6875,1
3.8014,1.6818,1
3.8015,1.6738,1
3.8015,1.6697,1
3.8015,1.6552,1
3.8015,1.6544,1
3.8015,1.6488,1
3.8015,1.6303,1
3.8016,1.6190,1
3.8016,1.6093,1
3.8016,1.6109,1
3.8016,1.6045,1
3.8016,1.6190,1
3.8016,1.6206,1
3.8017,1.6359,1
3.8017,1.6464,1
3.8017,1.6617,1
3.8017,1.6738,1
3.8017,1.6722,1
3.8017,1.6826,1
3.8018,1.6826,1
3.8018,1.6786,1
3.8018,1.7125,1
3.8018,1.6681,1
3.8018,1.6568,1
3.8018,1.6448,1
3.8019,1.6359,1
3.8019,1.6278,1
3.8019,1.6174,1
3.8019,1.6149,1
3.8019,1.6093,1
3.8019,1.6125,1
3.8020,1.6367,1
3.8020,1.6198,1
3.8020,1.6286,1
3.8020,1.6432,1
3.8020,1.6407,1
3.8020,1.6649,1
3.8021,1.6770,1
3.8021,1.6810,1
3.8021,1.6826,1
3.8021,1.6826,1
3.8021,1.6625,1
3.8021,1.6714,1
3.8278,1.6673,1
3.8279,1.6593,1
3.8279,1.6770,1
3.8279,1.6319,1
3.8279,1.6166,1
3.8280,1.6053,1
3.8280,1.5948,1
3.8280,1.6029,1
3.8280,1.6528,1
3.8280,1.6166,1
3.8280,1.6303,1
3.8281,1.6415,1
3.8281,1.6577,1
3.8281,1.6705,1
3.8281,1.6746,1
3.8281,1.6778,1
3.8281,1.7108,1
3.8282,1.6754,1
3.8282,1.6625,1
3.8282,1.6697,1
3.8282,1.6544,1
3.8282,1.6520,1
3.8282,1.6423,1
3.8283,1.6303,1
3.8283,1.6214,1
3.8283,1.6198,1
3.8283,1.6149,1
3.8283,1.6149,1
3.8283,1.6085,1
3.8284,1.6278,1
3.8284,1.6480,1
3.8284,1.6480,1
3.8284,1.6601,1
3.8284,1.6689,1
3.8284,1.6778,1
3.8285,1.6810,1
3.8285,1.6851,1
3.8285,1.6851,1
3.8285,1.6794,1
3.8285,1.6738,1
3.8285,1.6722,1
3.8286,1.6560,1
3.8286,1.6448,1
3.8286,1.6278,1
3.8286,1.6166,1
3.8286,1.6053,1
3.8286,1.6029,1
3.8287,1.6021,1
3.8287,1.6004,1
3.8287,1.6198,1
3.8287,1.6335,1
3.8287,1.6448,1
3.8287,1.6593,1
3.8553,1.6689,1
3.8553,1.6883,1
3.8554,1.6770,1
3.8554,1.6730,1
3.8554,1.6746,1
3.8554,1.6722,1
3.8554,1.6673,1
3.8554,1.6585,1
3.8555,1.6496,1
3.8555,1.6440,1
3.8555,1.6303,1
3.8555,1.6190,1
3.8555,1.6149,1
3.8555,1.6069,1
3.8556,1.6125,1
3.8556,1.6149,1
3.8556,1.6222,1
3.8556,1.6319,1
3.8556,1.6448,1
3.8556,1.6512,1
3.8557,1.6697,1
3.8557,1.6778,1
3.8557,1.6786,1
3.8557,1.6810,1
3.8557,1.6794,1
3.8557,1.6738,1
3.8558,1.6697,1
3.8558,1.6673,1
3.8558,1.6512,1
3.8558,1.6415,1
3.8558,1.6262,1
3.8558,1.6166,1
3.8559,1.6045,1
3.8559,1.6004,1
3.8559,1.6029,1
3.8559,1.6238,1
3.8559,1.6198,1
3.8559,1.6351,1
3.8560,1.6456,1
3.8560,1.6601,1
3.8560,1.6681,1
3.8560,1.6738,1
3.8560,1.6786,1
3.8560,1.6794,1
3.8561,1.6754,1
3.8561,1.6730,1
3.8561,1.6673,1
3.8561,1.6601,1
3.8561,1.6480,1
3.8561,1.6440,1
3.8562,1.6262,1
3.8562,1.6166,1
3.8562,1.6133,1
3.8562,1.6077,1
3.8562,1.6101,1
3.8563,1.6125,1
3.8830,1.6190,1
3.8830,1.6351,1
3.8830,1.6440,1
3.8830,1.6544,1
3.8831,1.6649,1
3.8831,1.6689,1
3.8831,1.6754,1
3.8831,1.6826,1
3.8831,1.6770,1
3.8832,1.6730,1
3.8832,1.6689,1
3.8832,1.6689,1
3.8832,1.6520,1
3.8832,1.6423,1
3.8832,1.6278,1
3.8833,1.6149,1
3.8833,1.6069,1
3.8833,1.6045,1
3.8833,1.6053,1
3.8833,1.6133,1
3.8833,1.6214,1
3.8834,1.6391,1
3.8834,1.6464,1
3.8834,1.6681,1
3.8834,1.6657,1
3.8834,1.6810,1
3.8834,1.6754,1
3.8835,1.6754,1
3.8835,1.6786,1
3.8835,1.6746,1
3.8835,1.6714,1
3.8835,1.6665,1
3.8835,1.6520,1
3.8836,1.6254,1
3.8836,1.6327,1
3.8836,1.6270,1
3.8836,1.6174,1
3.8836,1.6109,1
3.8836,1.6133,1
3.8837,1.6125,1
3.8837,1.6270,1
3.8837,1.6327,1
3.8837,1.6464,1
3.8837,1.6593,1
3.8837,1.6705,1
3.8838,1.6778,1
3.8838,1.6818,1
3.8838,1.6842,1
3.8838,1.6810,1
3.8838,1.6770,1
3.8838,1.6722,1
3.8839,1.6689,1
3.8839,1.6568,1
3.8839,1.6472,1
3.8839,1.6359,1
3.9096,1.6190,1
3.9096,1.6077,1
3.9097,1.6109,1
3.9097,1.6061,1
3.9097,1.6109,1
3.9097,1.6214,1
3.9097,1.6375,1
3.9097,1.6472,1
3.9097,1.6754,1
3.9098,1.6681,1
3.9098,1.6689,1
3.9098,1.6802,1
3.9098,1.6810,1
3.9098,1.6770,1
3.9098,1.6762,1
3.9099,1.6689,1
3.9099,1.6617,1
3.9099,1.6552,1
3.9099,1.6399,1
3.9099,1.6311,1
3.9099,1.6198,1
3.9100,1.6158,1
3.9100,1.6109,1
3.9100,1.6125,1
3.9100,1.6166,1
3.9100,1.6262,1
3.9100,1.6327,1
3.9100,1.6432,1
3.9101,1.6552,1
3.9101,1.6625,1
3.9101,1.6536,1
3.9101,1.6794,1
3.9101,1.6810,1
3.9101,1.6802,1
3.9102,1.6770,1
3.9102,1.6705,1
3.9102,1.6633,1
3.9102,1.6585,1
3.9102,1.6480,1
3.9102,1.6359,1
3.9103,1.6190,1
3.9103,1.6085,1
3.9103,1.6069,1
3.9103,1.6053,1
3.9103,1.6117,1
3.9103,1.6198,1
3.9103,1.6343,1
3.9104,1.6472,1
3.9104,1.6601,1
3.9104,1.6681,1
3.9104,1.6770,1
3.9104,1.6794,1
3.9104,1.6851,1
3.9354,1.6810,1
3.9354,1.6762,1
3.9354,1.6730,1
3.9354,1.6625,1
3.9354,1.6504,1
3.9354,1.6415,1
3.9355,1.6286,1
3.9355,1.6206,1
3.9355,1.6158,1
3.9355,1.6077,1
3.9355,1.6125,1
3.9355,1.6166,1
3.9356,1.6230,1
3.9356,1.6311,1
3.9356,1.6456,1
3.9356,1.6577,1
3.9356,1.6649,1
3.9357,1.6762,1
3.9357,1.6786,1
3.9357,1.6826,1
3.9357,1.6802,1
3.9357,1.6754,1
3.9357,1.6705,1
3.9358,1.6601,1
3.9358,1.6536,1
3.9358,1.6448,1
3.9358,1.6303,1
3.9358,1.6190,1
3.9358,1.6077,1
3.9359,1.6037,1
3.9359,1.6053,1
3.9359,1.6117,1
3.9359,1.6214,1
3.9359,1.6286,1
3.9359,1.6456,1
3.9360,1.6577,1
3.9360,1.6657,1
3.9360,1.6705,1
3.9360,1.6754,1
3.9360,1.6754,1
3.9360,1.6754,1
3.9361,1.6738,1
3.9361,1.6673,1
3.9361,1.6617,1
3.9361,1.6488,1
3.9361,1.6407,1
3.9361,1.6278,1
3.9362,1.6198,1
3.9362,1.6158,1
3.9362,1.6093,1
3.9362,1.6109,1
3.9614,1.6141,1
3.9614,1.6214,1
3.9614,1.6335,1
3.9614,1.6423,1
3.9615,1.6552,1
3.9615,1.6681,1
3.9615,1.6762,1
3.9615,1.6770,1
3.9615,1.6818,1
3.9615,1.6778,1
3.9616,1.6657,1
3.9616,1.6714,1
3.9616,1.6665,1
3.9616,1.6577,1
3.9616,1.6464,1
3.9616,1.6295,1
3.9616,1.6182,1
3.9617,1.6109,1
3.9617,1.6061,1
3.9617,1.6061,1
3.9617,1.6158,1
3.9617,1.6254,1
3.9617,1.6359,1
3.9617,1.6504,1
3.9618,1.6609,1
3.9618,1.6689,1
3.9618,1.6794,1
3.9618,1.6802,1
3.9618,1.6786,1
3.9618,1.6770,1
3.9619,1.6762,1
3.9619,1.6689,1
3.9619,1.6641,1
3.9619,1.6512,1
3.9619,1.6423,1
3.9619,1.6311,1
3.9620,1.6174,1
3.9620,1.6166,1
3.9620,1.6093,1
3.9620,1.6109,1
3.9620,1.6158,1
3.9620,1.6230,1
3.9620,1.6335,1
3.9621,1.6456,1
3.9621,1.6585,1
3.9621,1.6673,1
3.9621,1.6754,1
3.9621,1.6802,1
3.9621,1.6842,1
3.9622,1.6810,1
3.9622,1.6810,1
3.9622,1.6730,1
3.9623,1.6673,1
3.9879,1.6577,1
3.9879,1.6432,1
3.9879,1.6335,1
3.9879,1.6182,1
3.9880,1.6109,1
3.9880,1.6085,1
3.9880,1.6077,1
3.9880,1.6149,1
3.9880,1.6230,1
3.9880,1.6391,1
3.9881,1.6496,1
3.9881,1.6633,1
3.9881,1.6722,1
3.9881,1.6802,1
3.9881,1.6826,1
3.9881,1.6859,1
3.9881,1.6842,1
3.9882,1.6842,1
3.9882,1.6730,1
3.9882,1.6617,1
3.9882,1.6544,1
3.9882,1.6464,1
3.9882,1.6311,1
3.9883,1.6206,1
3.9883,1.6174,1
3.9883,1.6125,1
3.9883,1.6149,1
3.9883,1.6182,1
3.9883,1.6262,1
3.9883,1.6351,1
3.9884,1.6464,1
3.9884,1.6585,1
3.9884,1.6705,1
3.9884,1.6778,1
3.9884,1.6826,1
3.9884,1.6810,1
3.9884,1.6762,1
3.9885,1.6762,1
3.9885,1.6697,1
3.9885,1.6593,1
3.9885,1.6544,1
3.9885,1.6496,1
3.9885,1.6319,1
3.9886,1.6295,1
3.9886,1.6069,1
3.9886,1.6045,1
3.9886,1.6069,1
3.9886,1.6149,1
3.9886,1.6238,1
3.9887,1.6375,1
3.9887,1.6488,1
3.9887,1.6617,1
4.0141,1.6697,1
4.0141,1.6738,1
4.0141,1.6786,1
4.0141,1.6794,1
4.0142,1.6754,1
4.0142,1.6746,1
4.0142,1.6705,1
4.0142,1.6625,1
4.0142,1.6504,1
4.0143,1.6423,1
4.0143,1.6295,1
4.0143,1.6190,1
4.0143,1.6158,1
4.0143,1.6085,1
4.0143,1.6125,1
4.0144,1.6158,1
4.0144,1.6238,1
4.0144,1.6303,1
4.0144,1.6432,1
4.0144,1.6560,1
4.0144,1.6641,1
4.0145,1.6722,1
4.0145,1.6778,1
4.0145,1.6794,1
4.0145,1.6794,1
4.0145,1.6722,1
4.0145,1.6665,1
4.0145,1.6593,1
4.0146,1.6552,1
4.0146,1.6448,1
4.0146,1.6319,1
4.0146,1.6222,1
4.0146,1.6109,1
4.0146,1.6077,1
4.0147,1.6085,1
4.0147,1.6158,1
4.0147,1.6222,1
4.0147,1.6383,1
4.0147,1.6480,1
4.0147,1.6657,1
4.0148,1.6705,1
4.0148,1.6778,1
4.0148,1.6818,1
4.0148,1.6818,1
4.0148,1.6802,1
4.0148,1.6770,1
4.0148,1.6689,1
4.0149,1.6657,1
4.0149,1.6488,1
4.0149,1.6456,1
4.0149,1.6278,1
4.0149,1.6190,1
4.0149,1.6141,1
4.0403,1.6101,1
4.0403,1.6125,1
4.0403,1.6166,1
4.0403,1.6246,1
4.0403,1.6343,1
4.0403,1.6456,1
4.0404,1.6544,1
4.0404,1.6673,1
4.0404,1.6754,1
4.0404,1.6794,1
4.0404,1.6794,1
4.0404,1.6818,1
4.0406,1.6754,1
4.0406,1.6738,1
4.0406,1.6625,1
4.0406,1.6552,1
4.0406,1.6375,1
4.0407,1.6295,1
4.0407,1.6166,1
4.0407,1.6069,1
4.0407,1.6037,1
4.0407,1.6037,1
4.0407,1.6133,1
4.0408,1.6214,1
4.0408,1.6351,1
4.0408,1.6464,1
4.0408,1.6609,1
4.0408,1.6673,1
4.0408,1.6770,1
4.0408,1.6802,1
4.0409,1.6770,1
4.0409,1.6802,1
4.0409,1.6770,1
4.0409,1.6705,1
4.0409,1.6633,1
4.0409,1.6504,1
4.0410,1.6383,1
4.0410,1.6262,1
4.0410,1.6141,1
4.0410,1.6093,1
4.0410,1.6069,1
4.0410,1.6037,1
4.0410,1.6101,1
4.0411,1.6238,1
4.0411,1.6319,1
4.0411,1.6456,1
4.0411,1.6593,1
4.0411,1.6689,1
4.0411,1.6770,1
4.0412,1.6778,1
4.0412,1.6786,1
4.0412,1.6810,1
4.0670,1.6834,1
4.0670,1.6705,1
4.0670,1.6593,1
4.0670,1.6536,1
4.0671,1.6423,1
4.0671,1.6295,1
4.0671,1.6174,1
4.0671,1.6053,1
4.0671,1.6029,1
4.0671,1.6053,1
4.0671,1.6125,1
4.0672,1.6190,1
4.0672,1.6343,1
4.0672,1.6504,1
4.0672,1.6641,1
4.0672,1.6681,1
4.0672,1.6738,1
4.0672,1.6786,1
4.0673,1.6778,1
4.0673,1.6778,1
4.0673,1.6730,1
4.0673,1.6665,1
4.0673,1.6601,1
4.0673,1.6488,1
4.0674,1.6399,1
4.0674,1.6270,1
4.0674,1.6158,1
4.0674,1.6117,1
4.0674,1.6085,1
4.0674,1.6045,1
4.0675,1.6093,1
4.0675,1.6206,1
4.0675,1.6270,1
4.0675,1.6407,1
4.0675,1.6512,1
4.0675,1.6657,1
4.0675,1.6730,1
4.0676,1.6786,1
4.0676,1.6826,1
4.0676,1.6810,1
4.0676,1.6778,1
4.0676,1.6746,1
4.0676,1.6617,1
4.0677,1.6552,1
4.0677,1.6448,1
4.0677,1.6319,1
4.0677,1.6158,1
4.0677,1.6077,1
4.0677,1.5980,1
4.0678,1.6053,1
4.0678,1.6117,1
4.0678,1.6222,1
4.0678,1.6343,1
4.0678,1.6472,1
4.0932,1.6625,1
4.0932,1.6665,1
4.0933,1.6746,1
4.0933,1.6810,1
4.0933,1.6786,1
4.0933,1.6786,1
4.0933,1.6738,1
4.0933,1.6714,1
4.0934,1.6641,1
4.0934,1.6504,1
4.0934,1.6407,1
4.0934,1.6303,1
4.0934,1.6190,1
4.0934,1.6166,1
4.0934,1.6093,1
4.0935,1.6077,1
4.0935,1.6149,1
4.0935,1.6222,1
4.0935,1.6311,1
4.0935,1.6432,1
4.0936,1.6544,1
4.0936,1.6641,1
4.0936,1.6722,1
4.0936,1.6770,1
4.0936,1.6794,1
4.0936,1.6810,1
4.0936,1.6738,1
4.0937,1.6665,1
4.0937,1.6875,1
4.0937,1.6504,1
4.0937,1.6407,1
4.0937,1.6254,1
4.0937,1.6133,1
4.0938,1.6037,1
4.0938,1.6004,1
4.0938,1.6037,1
4.0938,1.6117,1
4.0938,1.6182,1
4.0938,1.6335,1
4.0938,1.6448,1
4.0939,1.6577,1
4.0939,1.6665,1
4.0939,1.6746,1
4.0939,1.6786,1
4.0939,1.6802,1
4.0939,1.6786,1
4.0940,1.6730,1
4.0940,1.6705,1
4.0940,1.6601,1
4.0940,1.6496,1
4.0940,1.6423,1
4.0940,1.6278,1
4.1202,1.6174,1
4.1202,1.6149,1
4.1202,1.6093,1
4.1202,1.6061,1
4.1203,1.6149,1
4.1203,1.6230,1
4.1203,1.6327,1
4.1203,1.6423,1
4.1203,1.6577,1
4.1203,1.6633,1
4.1204,1.6722,1
4.1204,1.6770,1
4.1204,1.6802,1
4.1204,1.6762,1
4.1204,1.6722,1
4.1204,1.6665,1
4.1204,1.6601,1
4.1205,1.6528,1
4.1205,1.6391,1
4.1205,1.6286,1
4.1205,1.6158,1
4.1205,1.6053,1
4.1205,1.6004,1
4.1206,1.6021,1
4.1206,1.6061,1
4.1206,1.6198,1
4.1206,1.6109,1
4.1206,1.6351,1
4.1206,1.6617,1
4.1207,1.6730,1
4.1207,1.6778,1
4.1207,1.6786,1
4.1207,1.6802,1
4.1207,1.6754,1
4.1207,1.6705,1
4.1208,1.6665,1
4.1208,1.6585,1
4.1208,1.6488,1
4.1208,1.6383,1
4.1208,1.6278,1
4.1208,1.6158,1
4.1208,1.6117,1
4.1209,1.6069,1
4.1209,1.6029,1
4.1209,1.6109,1
4.1209,1.6190,1
4.1209,1.6286,1
4.1209,1.6432,1
4.1210,1.6560,1
4.1210,1.6657,1
4.1210,1.6730,1
4.1210,1.7052,1
4.1210,1.6810,1
4.1210,1.6786,1
4.1471,1.6746,1
4.1471,1.6689,1
4.1471,1.6617,1
4.1472,1.6544,1
4.1472,1.6423,1
4.1472,1.6303,1
4.1472,1.6182,1
4.1472,1.5964,1
4.1472,1.6061,1
4.1473,1.6053,1
4.1473,1.6085,1
4.1473,1.6238,1
4.1473,1.6351,1
4.1473,1.6536,1
4.1473,1.6641,1
4.1473,1.6673,1
4.1474,1.6810,1
4.1474,1.6834,1
4.1474,1.6810,1
4.1474,1.6834,1
4.1474,1.6762,1
4.1474,1.6738,1
4.1475,1.6552,1
4.1475,1.6432,1
4.1475,1.6407,1
4.1475,1.6270,1
4.1475,1.6133,1
4.1475,1.6141,1
4.1476,1.6109,1
4.1476,1.6117,1
4.1476,1.6149,1
4.1476,1.6214,1
4.1476,1.6375,1
4.1476,1.6464,1
4.1476,1.6560,1
4.1477,1.6641,1
4.1477,1.6568,1
4.1477,1.6867,1
4.1477,1.6762,1
4.1477,1.6826,1
4.1477,1.6802,1
4.1477,1.6722,1
4.1478,1.6649,1
4.1478,1.6552,1
4.1478,1.6464,1
4.1478,1.6311,1
4.1478,1.6214,1
4.1478,1.6085,1
4.1479,1.6278,1
4.1479,1.6069,1
4.1479,1.6230,1
4.1479,1.6230,1
4.1479,1.6351,1
4.1479,1.6448,1
4.1739,1.6593,1
4.1740,1.6697,1
4.1740,1.6786,1
4.1740,1.6794,1
4.1740,1.6802,1
4.1740,1.6826,1
4.1741,1.6762,1
4.1741,1.6649,1
4.1741,1.6649,1
4.1741,1.6560,1
4.1741,1.6407,1
4.1741,1.6359,1
4.1741,1.6190,1
4.1742,1.6182,1
4.1742,1.6093,1
4.1742,1.6069,1
4.1742,1.6045,1
4.1742,1.6246,1
4.1742,1.6278,1
4.1742,1.6343,1
4.1743,1.6544,1
4.1743,1.6722,1
4.1743,1.6754,1
4.1743,1.7012,1
4.1743,1.6778,1
4.1743,1.6802,1
4.1743,1.6754,1
4.1744,1.6714,1
4.1744,1.6496,1
4.1744,1.6544,1
4.1744,1.6423,1
4.1744,1.6303,1
4.1744,1.6182,1
4.1745,1.6069,1
4.1745,1.6045,1
4.1745,1.6053,1
4.1745,1.6141,1
4.1745,1.6222,1
4.1745,1.6343,1
4.1745,1.6448,1
4.1746,1.6585,1
4.1746,1.6689,1
4.1746,1.6770,1
4.1746,1.6802,1
4.1746,1.6834,1
4.1746,1.6746,1
4.1747,1.6762,1
4.1747,1.6730,1
4.1747,1.6633,1
4.1747,1.6536,1
4.1747,1.6472,1
4.1747,1.6303,1
4.1748,1.6198,1
4.1748,1.6166,1
4.2015,1.6206,1
4.2015,1.6141,1
4.2015,1.6174,1
4.2015,1.6262,1
4.2015,1.6351,1
4.2016,1.6456,1
4.2016,1.6633,1
4.2016,1.6673,1
4.2016,1.6617,1
4.2016,1.6818,1
4.2016,1.6891,1
4.2017,1.6834,1
4.2017,1.6810,1
4.2017,1.6754,1
4.2017,1.6657,1
4.2017,1.6158,1
4.2017,1.6512,1
4.2018,1.6391,1
4.2018,1.6270,1
4.2018,1.6246,1
4.2018,1.5948,1
4.2018,1.6214,1
4.2018,1.6190,1
4.2019,1.6303,1
4.2019,1.6415,1
4.2019,1.6480,1
4.2019,1.6560,1
4.2019,1.7173,1
4.2019,1.6722,1
4.2019,1.6786,1
4.2020,1.6818,1
4.2020,1.7100,1
4.2020,1.6738,1
4.2020,1.6673,1
4.2020,1.6641,1
4.2020,1.6504,1
4.2021,1.6407,1
4.2021,1.6295,1
4.2021,1.6214,1
4.2021,1.6182,1
4.2021,1.6158,1
4.2021,1.6166,1
4.2021,1.6206,1
4.2022,1.6311,1
4.2022,1.6375,1
4.2022,1.6504,1
4.2022,1.6560,1
4.2022,1.6762,1
4.2022,1.6722,1
4.2023,1.6875,1
4.2023,1.6915,1
4.2023,1.6875,1
4.2023,1.6931,1
4.2023,1.6786,1
4.2023,1.6754,1
4.2296,1.6593,1
4.2296,1.6480,1
4.2296,1.6383,1
4.2296,1.6286,1
4.2297,1.6101,1
4.2297,1.6109,1
4.2297,1.6069,1
4.2297,1.6158,1
4.2297,1.6254,1
4.2297,1.6383,1
4.2298,1.6504,1
4.2298,1.6931,1
4.2298,1.6746,1
4.2298,1.6770,1
4.2298,1.6689,1
4.2298,1.6883,1
4.2298,1.6826,1
4.2299,1.6722,1
4.2299,1.6746,1
4.2299,1.6722,1
4.2299,1.6528,1
4.2299,1.6351,1
4.2299,1.6335,1
4.2299,1.6327,1
4.2300,1.6190,1
4.2300,1.5867,1
4.2300,1.6190,1
4.2300,1.6254,1
4.2300,1.6286,1
4.2300,1.6496,1
4.2301,1.6520,1
4.2301,1.6665,1
4.2301,1.6754,1
4.2301,1.6601,1
4.2301,1.6842,1
4.2301,1.6681,1
4.2301,1.6867,1
4.2302,1.6810,1
4.2302,1.6738,1
4.2302,1.6665,1
4.2302,1.6560,1
4.2302,1.6440,1
4.2303,1.6278,1
4.2303,1.6149,1
4.2303,1.6069,1
4.2303,1.6029,1
4.2303,1.6045,1
4.2303,1.6117,1
4.2304,1.6222,1
4.2304,1.6351,1
4.2304,1.6480,1
4.2304,1.6593,1
4.2304,1.6714,1
4.2304,1.6786,1
4.2304,1.6802,1
4.2305,1.6778,1
4.2581,1.6810,1
4.2581,1.6786,1
4.2581,1.6689,1
4.2582,1.6560,1
4.2582,1.6488,1
4.2582,1.6391,1
4.2582,1.6303,1
4.2582,1.6206,1
4.2582,1.6125,1
4.2582,1.6021,1
4.2583,1.6029,1
4.2583,1.6166,1
4.2583,1.6133,1
4.2583,1.6343,1
4.2583,1.6472,1
4.2583,1.6641,1
4.2583,1.6681,1
4.2584,1.6681,1
4.2584,1.6794,1
4.2584,1.6802,1
4.2584,1.6818,1
4.2584,1.6714,1
4.2584,1.6762,1
4.2585,1.6657,1
4.2585,1.6568,1
4.2585,1.6480,1
4.2585,1.6222,1
4.2585,1.6206,1
4.2585,1.6109,1
4.2586,1.6045,1
4.2586,1.6077,1
4.2586,1.6133,1
4.2586,1.6407,1
4.2586,1.6391,1
4.2586,1.6536,1
4.2586,1.6665,1
4.2587,1.6746,1
4.2587,1.6778,1
4.2587,1.6851,1
4.2587,1.6834,1
4.2587,1.6826,1
4.2587,1.6786,1
4.2588,1.6738,1
4.2588,1.6689,1
4.2588,1.6464,1
4.2588,1.6504,1
4.2588,1.6319,1
4.2588,1.6238,1
4.2589,1.6206,1
4.2589,1.6141,1
4.2589,1.6190,1
4.2589,1.6746,1
4.2589,1.6488,1
4.2589,1.6295,1
4.2589,1.6295,1
4.2590,1.6585,1
4.2590,1.6673,1
4.2868,1.6770,1
4.2868,1.6802,1
4.2868,1.6875,1
4.2868,1.6851,1
4.2868,1.6810,1
4.2869,1.6754,1
4.2869,1.6697,1
4.2869,1.6593,1
4.2870,1.6488,1
4.2870,1.6351,1
4.2870,1.6246,1
4.2870,1.6125,1
4.2870,1.6117,1
4.2870,1.6222,1
4.2871,1.6182,1
4.2871,1.6270,1
4.2871,1.6383,1
4.2871,1.6496,1
4.2871,1.6665,1
4.2871,1.6560,1
4.2871,1.6818,1
4.2872,1.6939,1
4.2872,1.6842,1
4.2872,1.6786,1
4.2872,1.6842,1
4.2872,1.6738,1
4.2872,1.6673,1
4.2873,1.6528,1
4.2873,1.6432,1
4.2873,1.6295,1
4.2873,1.6206,1
4.2873,1.6480,1
4.2873,1.6061,1
4.2874,1.6101,1
4.2874,1.6149,1
4.2874,1.6222,1
4.2874,1.6327,1
4.2874,1.6472,1
4.2874,1.6552,1
4.2874,1.6762,1
4.2875,1.6770,1
4.2875,1.6859,1
4.2875,1.6794,1
4.2875,1.6851,1
4.2875,1.6818,1
4.2875,1.6786,1
4.2875,1.6689,1
4.2876,1.6601,1
4.2876,1.6480,1
4.2876,1.6391,1
4.2876,1.6238,1
4.2876,1.6214,1
4.2876,1.6093,1
4.2877,1.6085,1
4.2877,1.6198,1
4.2877,1.6327,1
4.2877,1.6399,1
4.3160,1.6552,1
4.3160,1.6665,1
4.3160,1.6770,1
4.3160,1.6826,1
4.3160,1.6859,1
4.3160,1.6834,1
4.3161,1.6923,1
4.3161,1.6786,1
4.3161,1.6754,1
4.3161,1.6657,1
4.3161,1.6552,1
4.3161,1.6432,1
4.3162,1.6246,1
4.3162,1.6206,1
4.3162,1.6149,1
4.3162,1.6133,1
4.3162,1.6174,1
4.3162,1.6182,1
4.3162,1.6270,1
4.3163,1.6375,1
4.3163,1.6512,1
4.3163,1.6536,1
4.3163,1.6705,1
4.3163,1.6842,1
4.3163,1.6834,1
4.3164,1.6842,1
4.3164,1.6899,1
4.3164,1.6818,1
4.3164,1.7084,1
4.3164,1.6633,1
4.3164,1.6552,1
4.3164,1.6456,1
4.3165,1.6359,1
4.3165,1.6182,1
4.3165,1.6093,1
4.3165,1.6061,1
4.3165,1.6069,1
4.3165,1.6149,1
4.3166,1.6246,1
4.3166,1.6383,1
4.3166,1.6617,1
4.3166,1.6649,1
4.3166,1.6657,1
4.3166,1.6810,1
4.3167,1.6818,1
4.3167,1.6867,1
4.3167,1.6851,1
4.3167,1.6818,1
4.3167,1.6778,1
4.3167,1.6689,1
4.3167,1.6568,1
4.3168,1.6456,1
4.3168,1.6295,1
4.3168,1.6214,1
4.3168,1.5795,1
4.3168,1.6166,1
4.3168,1.6117,1
4.3168,1.6230,1
4.3169,1.6286,1
4.3454,1.6407,1
4.3454,1.6512,1
4.3454,1.6577,1
4.3455,1.6738,1
4.3455,1.6794,1
4.3455,1.6818,1
4.3455,1.6883,1
4.3455,1.6915,1
4.3455,1.6754,1
4.3455,1.6746,1
4.3456,1.6697,1
4.3456,1.6560,1
4.3456,1.6456,1
4.3456,1.6206,1
4.3456,1.6190,1
4.3456,1.6101,1
4.3457,1.6101,1
4.3457,1.6069,1
4.3457,1.6182,1
4.3457,1.6254,1
4.3457,1.6375,1
4.3457,1.6552,1
4.3458,1.6641,1
4.3458,1.6778,1
4.3458,1.6842,1
4.3458,1.6722,1
4.3458,1.6963,1
4.3458,1.7028,1
4.3459,1.6794,1
4.3459,1.6746,1
4.3459,1.6641,1
4.3459,1.6544,1
4.3459,1.6464,1
4.3459,1.6311,1
4.3459,1.6230,1
4.3460,1.6198,1
4.3460,1.6141,1
4.3460,1.6206,1
4.3460,1.6198,1
4.3460,1.6327,1
4.3460,1.6367,1
4.3461,1.6504,1
4.3461,1.6633,1
4.3461,1.6697,1
4.3461,1.6794,1
4.3461,1.6834,1
4.3461,1.6947,1
4.3462,1.6867,1
4.3462,1.6834,1
4.3462,1.6754,1
4.3462,1.6665,1
4.3462,1.6609,1
4.3462,1.6472,1
4.3463,1.6351,1
4.3463,1.6206,1
4.3463,1.5980,1
4.3463,1.6101,1
4.3463,1.6117,1
4.3463,1.6222,1
4.3747,1.6286,1
4.3747,1.6399,1
4.3748,1.6560,1
4.3748,1.6673,1
4.3748,1.6657,1
4.3748,1.6859,1
4.3748,1.6899,1
4.3749,1.6939,1
4.3749,1.6899,1
4.3749,1.6794,1
4.3749,1.6722,1
4.3749,1.6681,1
4.3749,1.6552,1
4.3749,1.6456,1
4.3750,1.6335,1
4.3750,1.6270,1
4.3750,1.6174,1
4.3750,1.6117,1
4.3750,1.6141,1
4.3750,1.6158,1
4.3751,1.6303,1
4.3751,1.6359,1
4.3751,1.6496,1
4.3751,1.6633,1
4.3751,1.6738,1
4.3751,1.6802,1
4.3751,1.6851,1
4.3752,1.6859,1
4.3752,1.6867,1
4.3752,1.6802,1
4.3752,1.6754,1
4.3752,1.6665,1
4.3752,1.6585,1
4.3753,1.6512,1
4.3753,1.6367,1
4.3753,1.6222,1
4.3753,1.6141,1
4.3753,1.6093,1
4.3753,1.6077,1
4.3753,1.6182,1
4.3754,1.6254,1
4.3754,1.6383,1
4.3754,1.6488,1
4.3754,1.6609,1
4.3754,1.6746,1
4.3754,1.6762,1
4.3755,1.6859,1
4.3755,1.6794,1
4.3755,1.6826,1
4.3755,1.6786,1
4.3755,1.6851,1
4.3755,1.6681,1
4.3756,1.6560,1
4.3756,1.6472,1
4.3756,1.6319,1
4.3756,1.6270,1
4.3756,1.6182,1
4.3756,1.6158,1
4.4048,1.6141,1
4.4048,1.6198,1
4.4048,1.6262,1
4.4048,1.6343,1
4.4048,1.6480,1
4.4049,1.6577,1
4.4049,1.6689,1
4.4049,1.6754,1
4.4049,1.6818,1
4.4049,1.6859,1
4.4049,1.6867,1
4.4049,1.6826,1
4.4050,1.6762,1
4.4050,1.6665,1
4.4050,1.6625,1
4.4050,1.6496,1
4.4050,1.6335,1
4.4050,1.6230,1
4.4050,1.6149,1
4.4051,1.6133,1
4.4051,1.6077,1
4.4051,1.6166,1
4.4051,1.6278,1
4.4051,1.6407,1
4.4051,1.6552,1
4.4051,1.6649,1
4.4052,1.6746,1
4.4052,1.6681,1
4.4052,1.6891,1
4.4052,1.6931,1
4.4052,1.6883,1
4.4053,1.6867,1
4.4053,1.6778,1
4.4053,1.6665,1
4.4053,1.6512,1
4.4053,1.6456,1
4.4053,1.6351,1
4.4054,1.6286,1
4.4054,1.6166,1
4.4054,1.6117,1
4.4054,1.6125,1
4.4054,1.6190,1
4.4054,1.6278,1
4.4055,1.6375,1
4.4055,1.6496,1
4.4055,1.6641,1
4.4055,1.6722,1
4.4055,1.6802,1
4.4055,1.6851,1
4.4055,1.6891,1
4.4056,1.6875,1
4.4056,1.6826,1
4.4056,1.6762,1
4.4056,1.6681,1
4.4056,1.6609,1
4.4056,1.6496,1
4.4057,1.6343,1
4.4057,1.6214,1
4.4057,1.6158,1
4.4057,1.6045,1
4.4349,1.6093,1
4.4349,1.6174,1
4.4349,1.6278,1
4.4349,1.6488,1
4.4349,1.6560,1
4.4350,1.6641,1
4.4350,1.6810,1
4.4350,1.6859,1
4.4350,1.6818,1
4.4350,1.6915,1
4.4350,1.6512,1
4.4351,1.6915,1
4.4351,1.6778,1
4.4351,1.6689,1
4.4351,1.6568,1
4.4351,1.6480,1
4.4351,1.6319,1
4.4352,1.6278,1
4.4352,1.6206,1
4.4352,1.6166,1
4.4352,1.6166,1
4.4352,1.6190,1
4.4353,1.6286,1
4.4353,1.6375,1
4.4353,1.6528,1
4.4353,1.6657,1
4.4353,1.6714,1
4.4353,1.6786,1
4.4354,1.6851,1
4.4354,1.6851,1
4.4354,1.6875,1
4.4354,1.6842,1
4.4354,1.6810,1
4.4354,1.6794,1
4.4354,1.6625,1
4.4355,1.6512,1
4.4355,1.6391,1
4.4355,1.6262,1
4.4355,1.6125,1
4.4355,1.6125,1
4.4355,1.6125,1
4.4355,1.6182,1
4.4356,1.6278,1
4.4356,1.6407,1
4.4356,1.6544,1
4.4356,1.6649,1
4.4356,1.6786,1
4.4356,1.6875,1
4.4357,1.6802,1
4.4357,1.6915,1
4.4357,1.6923,1
4.4357,1.6778,1
4.4357,1.6730,1
4.4357,1.6665,1
4.4358,1.6496,1
4.4358,1.6488,1
4.4358,1.6351,1
4.4358,1.6311,1
4.4358,1.6214,1
4.4358,1.6141,1
4.4359,1.6174,1
4.4744,1.6206,1
4.4745,1.6278,1
4.4745,1.6375,1
4.4745,1.6520,1
4.4745,1.6649,1
4.4745,1.6754,1
4.4746,1.6794,1
4.4746,1.6875,1
4.4746,1.6851,1
4.4746,1.6867,1
4.4746,1.6826,1
4.4746,1.6754,1
4.4747,1.6730,1
4.4747,1.6601,1
4.4747,1.6520,1
4.4747,1.6375,1
4.4747,1.6254,1
4.4747,1.6198,1
4.4748,1.6101,1
4.4748,1.6125,1
4.4748,1.6214,1
4.4748,1.6303,1
4.4748,1.6423,1
4.4748,1.6552,1
4.4749,1.6536,1
4.4749,1.6786,1
4.4749,1.6826,1
4.4749,1.6867,1
4.4749,1.6851,1
4.4749,1.6907,1
4.4749,1.6818,1
4.4750,1.6754,1
4.4750,1.6689,1
4.4750,1.6577,1
4.4750,1.6488,1
4.4750,1.6295,1
4.4750,1.6286,1
4.4751,1.6230,1
4.4751,1.6198,1
4.4751,1.6182,1
4.4751,1.6182,1
4.4751,1.6327,1
4.4751,1.6270,1
4.4751,1.6577,1
4.4752,1.6657,1
4.4752,1.6762,1
4.4752,1.6842,1
4.4752,1.6899,1
4.4752,1.6915,1
4.4752,1.6875,1
4.4753,1.6851,1
4.4753,1.6802,1
4.4753,1.6770,1
4.4753,1.6673,1
4.4753,1.6472,1
4.4753,1.6359,1
4.4754,1.6206,1
4.4754,1.6109,1
4.4754,1.6085,1
4.4754,1.6101,1
4.4754,1.6214,1
4.4754,1.6295,1
4.4755,1.6456,1
4.4755,1.6560,1
4.4755,1.6697,1
4.4755,1.6794,1
4.4755,1.6859,1
4.4755,1.6867,1
4.4755,1.6947,1
4.4756,1.6883,1
4.4756,1.6915,1
4.4756,1.6794,1
4.4756,1.6673,1
4.4756,1.6633,1
4.4756,1.6480,1
4.4757,1.6375,1
4.4757,1.6327,1
4.4757,1.6198,1
4.4757,1.6190,1
4.5126,1.6206,1
4.5126,1.6214,1
4.5126,1.6375,1
4.5127,1.6383,1
4.5127,1.6536,1
4.5127,1.6657,1
4.5127,1.6762,1
4.5127,1.6826,1
4.5127,1.6899,1
4.5128,1.6923,1
4.5128,1.6891,1
4.5128,1.6867,1
4.5128,1.6786,1
4.5128,1.6738,1
4.5128,1.6673,1
4.5129,1.6544,1
4.5129,1.6448,1
4.5129,1.6278,1
4.5129,1.6319,1
4.5129,1.6149,1
4.5129,1.6149,1
4.5130,1.6222,1
4.5130,1.6319,1
4.5130,1.6440,1
4.5130,1.6577,1
4.5130,1.6681,1
4.5130,1.6770,1
4.5130,1.6826,1
4.5131,1.6818,1
4.5131,1.6826,1
4.5131,1.6754,1
4.5131,1.6738,1
4.5131,1.6746,1
4.5131,1.6834,1
4.5132,1.6593,1
4.5132,1.6488,1
4.5132,1.6399,1
4.5132,1.6303,1
4.5132,1.6327,1
4.5133,1.6198,1
4.5133,1.6262,1
4.5133,1.6351,1
4.5133,1.6448,1
4.5133,1.6552,1
4.5133,1.6665,1
4.5133,1.6730,1
4.5134,1.6867,1
4.5134,1.6810,1
4.5134,1.6867,1
4.5134,1.6971,1
4.5134,1.7020,1
4.5134,1.6939,1
4.5134,1.6899,1
4.5135,1.6722,1
4.5135,1.6665,1
4.5135,1.6577,1
4.5135,1.6270,1
4.5136,1.6319,1
4.5136,1.6085,1
4.5136,1.6174,1
4.5136,1.6182,1
4.5136,1.6246,1
4.5136,1.6270,1
4.5136,1.6399,1
4.5137,1.6520,1
4.5137,1.6601,1
4.5137,1.6649,1
4.5137,1.6738,1
4.5137,1.6786,1
4.5138,1.6746,1
4.5138,1.6762,1
4.5138,1.6778,1
4.5138,1.6681,1
4.5138,1.6722,1
4.5138,1.6568,1
4.5138,1.6383,1
4.5139,1.6351,1
4.5511,1.6319,1
4.5511,1.6230,1
4.5511,1.6206,1
4.5511,1.6214,1
4.5512,1.6238,1
4.5512,1.6351,1
4.5512,1.6440,1
4.5512,1.6520,1
4.5512,1.6633,1
4.5512,1.6730,1
4.5512,1.6705,1
4.5513,1.6722,1
4.5513,1.6883,1
4.5513,1.6859,1
4.5513,1.6778,1
4.5513,1.6786,1
4.5513,1.6714,1
4.5514,1.6633,1
4.5514,1.6560,1
4.5514,1.6367,1
4.5514,1.6246,1
4.5514,1.6206,1
4.5514,1.6109,1
4.5515,1.6085,1
4.5515,1.6262,1
4.5515,1.6286,1
4.5515,1.6335,1
4.5515,1.6432,1
4.5515,1.6432,1
4.5516,1.6617,1
4.5516,1.6665,1
4.5516,1.6778,1
4.5516,1.6746,1
4.5516,1.6762,1
4.5516,1.6786,1
4.5517,1.6746,1
4.5517,1.6633,1
4.5517,1.6560,1
4.5517,1.6472,1
4.5517,1.6262,1
4.5517,1.6158,1
4.5517,1.6230,1
4.5518,1.6343,1
4.5518,1.6117,1
4.5518,1.6166,1
4.5518,1.6295,1
4.5518,1.6399,1
4.5518,1.6504,1
4.5518,1.6617,1
4.5519,1.6681,1
4.5519,1.6762,1
4.5519,1.6883,1
4.5519,1.6875,1
4.5519,1.6762,1
4.5519,1.6778,1
4.5520,1.6738,1
4.5520,1.6560,1
4.5520,1.6585,1
4.5520,1.6488,1
4.5520,1.6375,1
4.5520,1.6270,1
4.5521,1.6133,1
4.5521,1.6149,1
4.5521,1.6141,1
4.5521,1.6093,1
4.5521,1.6295,1
4.5521,1.6456,1
4.5522,1.6544,1
4.5522,1.6641,1
4.5522,1.6722,1
4.5522,1.6714,1
4.5522,1.6810,1
4.5522,1.6818,1
4.5523,1.6802,1
4.5523,1.6722,1
4.5523,1.6762,1
4.5523,1.6697,1
4.5897,1.6577,1
4.5897,1.6464,1
4.5897,1.6222,1
4.5898,1.6174,1
4.5898,1.6278,1
4.5898,1.6206,1
4.5898,1.6198,1
4.5898,1.6214,1
4.5898,1.6311,1
4.5898,1.6391,1
4.5899,1.6536,1
4.5899,1.6601,1
4.5899,1.6673,1
4.5899,1.6738,1
4.5899,1.6786,1
4.5899,1.6826,1
4.5900,1.6786,1
4.5900,1.6568,1
4.5900,1.6754,1
4.5900,1.6673,1
4.5900,1.6633,1
4.5900,1.6512,1
4.5900,1.6383,1
4.5901,1.6295,1
4.5901,1.6222,1
4.5901,1.6174,1
4.5901,1.6077,1
4.5901,1.6101,1
4.5901,1.6311,1
4.5902,1.6383,1
4.5902,1.6528,1
4.5902,1.6657,1
4.5902,1.6762,1
4.5902,1.6601,1
4.5903,1.6867,1
4.5903,1.6883,1
4.5903,1.6842,1
4.5903,1.6826,1
4.5903,1.6754,1
4.5903,1.6722,1
4.5904,1.6585,1
4.5904,1.6448,1
4.5904,1.6415,1
4.5904,1.6182,1
4.5904,1.6278,1
4.5904,1.6254,1
4.5905,1.6238,1
4.5905,1.6367,1
4.5905,1.6351,1
4.5905,1.6456,1
4.5905,1.6617,1
4.5905,1.6633,1
4.5905,1.6722,1
4.5906,1.6883,1
4.5906,1.6738,1
4.5906,1.6859,1
4.5906,1.6867,1
4.5906,1.6842,1
4.5906,1.6818,1
4.5907,1.6730,1
4.5907,1.6617,1
4.5907,1.6544,1
4.5907,1.6456,1
4.5907,1.6593,1
4.5907,1.6238,1
4.5908,1.6182,1
4.5908,1.6158,1
4.5908,1.6319,1
4.5908,1.6359,1
4.5908,1.6496,1
4.5908,1.6585,1
4.5909,1.6681,1
4.5909,1.6818,1
4.5909,1.6867,1
4.5909,1.6875,1
4.5909,1.6939,1
4.5909,1.6923,1
4.6323,1.6859,1
4.6323,1.6673,1
4.6324,1.6851,1
4.6324,1.6649,1
4.6324,1.6560,1
4.6324,1.6440,1
4.6324,1.6375,1
4.6324,1.6319,1
4.6325,1.6286,1
4.6325,1.6278,1
4.6325,1.6367,1
4.6325,1.6351,1
4.6325,1.6456,1
4.6325,1.6577,1
4.6326,1.6649,1
4.6326,1.6762,1
4.6326,1.6834,1
4.6326,1.6891,1
4.6326,1.6907,1
4.6326,1.6875,1
4.6327,1.6834,1
4.6327,1.6834,1
4.6327,1.6738,1
4.6327,1.6673,1
4.6327,1.6657,1
4.6327,1.6415,1
4.6328,1.6311,1
4.6328,1.6254,1
4.6328,1.6230,1
4.6328,1.6270,1
4.6328,1.6585,1
4.6328,1.6343,1
4.6328,1.6520,1
4.6329,1.6560,1
4.6329,1.6722,1
4.6329,1.6802,1
4.6329,1.6754,1
4.6329,1.6907,1
4.6329,1.6891,1
4.6330,1.6826,1
4.6330,1.6891,1
4.6330,1.6851,1
4.6330,1.6810,1
4.6330,1.6657,1
4.6330,1.6585,1
4.6331,1.6456,1
4.6331,1.6399,1
4.6331,1.6343,1
4.6331,1.6254,1
4.6331,1.6295,1
4.6331,1.6335,1
4.6332,1.6359,1
4.6332,1.6593,1
4.6332,1.6601,1
4.6332,1.6697,1
4.6332,1.6762,1
4.6332,1.6875,1
4.6333,1.6875,1
4.6333,1.6923,1
4.6333,1.6560,1
4.6333,1.6939,1
4.6333,1.6875,1
4.6333,1.6818,1
4.6333,1.6722,1
4.6334,1.6601,1
4.6334,1.6488,1
4.6334,1.6407,1
4.6334,1.6327,1
4.6334,1.6303,1
4.6334,1.6174,1
4.6335,1.6319,1
4.6335,1.6383,1
4.6335,1.6617,1
4.6335,1.6560,1
4.6335,1.6705,1
4.6335,1.6794,1
4.6336,1.6859,1
4.6336,1.6875,1
4.6336,1.6923,1
4.6336,1.6883,1
4.6336,1.6834,1
4.6336,1.6875,1
4.6336,1.6762,1
4.6337,1.6375,1
4.6337,1.6568,1
4.6756,1.6472,1
4.6756,1.6407,1
4.6757,1.6335,1
4.6757,1.6311,1
4.6757,1.6295,1
4.6757,1.6415,1
4.6757,1.6391,1
4.6758,1.6488,1
4.6758,1.6472,1
4.6758,1.5932,1
4.6758,1.6851,1
4.6758,1.6931,1
4.6758,1.6971,1
4.6758,1.6963,1
4.6759,1.6923,1
4.6759,1.6939,1
4.6759,1.6875,1
4.6759,1.6754,1
4.6759,1.6673,1
4.6759,1.6585,1
4.6760,1.6440,1
4.6760,1.6286,1
4.6760,1.6295,1
4.6760,1.6174,1
4.6760,1.6053,1
4.6760,1.6295,1
4.6760,1.6198,1
4.6761,1.6496,1
4.6761,1.6601,1
4.6761,1.6705,1
4.6761,1.6778,1
4.6761,1.6851,1
4.6761,1.6875,1
4.6761,1.6875,1
4.6762,1.6875,1
4.6762,1.6851,1
4.6762,1.7036,1
4.6762,1.6754,1
4.6762,1.6617,1
4.6762,1.6504,1
4.6763,1.6448,1
4.6763,1.6423,1
4.6763,1.6278,1
4.6763,1.6335,1
4.6763,1.6262,1
4.6763,1.6375,1
4.6764,1.6375,1
4.6764,1.6488,1
4.6764,1.6601,1
4.6764,1.6714,1
4.6764,1.6665,1
4.6764,1.6859,1
4.6765,1.6915,1
4.6765,1.6931,1
4.6765,1.6963,1
4.6765,1.6891,1
4.6765,1.6834,1
4.6765,1.6738,1
4.6766,1.6730,1
4.6766,1.6577,1
